Time	Voltage
0.000125	0.023270008392462
0.00025	0.024979018844892
0.000375	-0.00865186541542687
0.0005	-0.00343327992675669
0.000625	-0.00663767452506294
0.00075	-0.00404364080262455
0.000875	-0.00569161516746777
0.001	-0.00566109712367437
0.001125	-0.00566109712367437
0.00125	-0.00480659189745937
0.001375	-0.00587472343022812
0.0015	-0.0055390249485008
0.001625	-0.00563057907988098
0.00175	-0.00492866407263294
0.001875	-0.00520332646677348
0.002	-0.00495918211642634
0.002125	-0.00483710994125277
0.00225	-0.00486762798504616
0.002375	-0.0046845197222858
0.0025	-0.00416571297779812
0.002625	-0.00398260471503777
0.00275	-0.00419623102159152
0.002875	-0.00410467689021134
0.003	-0.00477607385366598
0.003125	-0.00532539864194705
0.00325	-0.0051117723353933
0.003375	-0.00489814602883955
0.0035	-0.00419623102159152
0.003625	-0.00440985732814527
0.00375	-0.00447089341573205
0.003875	-0.00520332646677348
0.004	-0.00401312275883116
0.004125	-0.00428778515297169
0.00425	-0.00492866407263294
0.004375	-0.00459296559090562
0.0045	-0.00563057907988098
0.004625	-0.00453192950331884
0.00475	-0.00544747081712062
0.004875	-0.00437933928435187
0.005	-0.0042572671091783
0.005125	-0.00578316929884794
0.00525	-0.00440985732814527
0.005375	-0.00495918211642634
0.0055	-0.00547798886091402
0.005625	-0.00523384451056687
0.00575	-0.00547798886091402
0.005875	-0.00526436255436027
0.006	-0.00465400167849241
0.006125	-0.00505073624780652
0.00625	-0.00471503776607919
0.006375	-0.00520332646677348
0.0065	-0.00584420538643473
0.006625	-0.00447089341573205
0.00675	-0.00450141145952544
0.006875	-0.00526436255436027
0.007	-0.00483710994125277
0.007125	-0.00419623102159152
0.00725	-0.0055390249485008
0.007375	-0.00428778515297169
0.0075	-0.00373846036469062
0.007625	-0.0046845197222858
0.00775	-0.00389105058365759
0.007875	-0.00517280842298009
0.008	-0.0046845197222858
0.008125	-0.00395208667124437
0.00825	-0.00413519493400473
0.008375	-0.00373846036469062
0.0085	-0.00422674906538491
0.008625	-0.00453192950331884
0.00875	-0.00401312275883116
0.008875	-0.00434882124055848
0.009	-0.00447089341573205
0.009125	-0.00379949645227741
0.00925	-0.0046845197222858
0.009375	-0.00447089341573205
0.0095	-0.00471503776607919
0.009625	-0.00352483405813687
0.00975	-0.00447089341573205
0.009875	-0.00392156862745098
0.01	-0.00419623102159152
0.010125	-0.00352483405813687
0.01025	-0.00410467689021134
0.010375	-0.00480659189745937
0.0105	-0.00413519493400473
0.010625	-0.00312809948882277
0.01075	-0.00407415884641794
0.010875	-0.0042572671091783
0.011	-0.00251773861295491
0.011125	-0.00358587014572366
0.01125	-0.00361638818951705
0.011375	-0.00352483405813687
0.0115	-0.00389105058365759
0.011625	-0.00367742427710384
0.01175	-0.0038300144960708
0.011875	-0.00465400167849241
0.012	-0.00401312275883116
0.012125	-0.00358587014572366
0.01225	-0.00355535210193027
0.012375	-0.00337224383916991
0.0125	-0.00312809948882277
0.012625	-0.00379949645227741
0.01275	-0.00453192950331884
0.012875	-0.0042572671091783
0.013	-0.00447089341573205
0.013125	-0.0034027618829633
0.01325	-0.0029755092698558
0.013375	-0.00346379797055009
0.0135	-0.00459296559090562
0.013625	-0.00444037537193866
0.01375	-0.00453192950331884
0.013875	-0.00520332646677348
0.014	-0.00416571297779812
0.014125	-0.00379949645227741
0.01425	-0.00389105058365759
0.014375	-0.00376897840848402
0.0145	-0.00334172579537652
0.014625	-0.00318913557640955
0.01475	-0.00321965362020294
0.014875	-0.00395208667124437
0.015	-0.00349431601434348
0.015125	-0.00431830319676509
0.01525	-0.00440985732814527
0.015375	-0.00428778515297169
0.0155	-0.00505073624780652
0.015625	-0.00462348363469902
0.01575	-0.00505073624780652
0.015875	-0.00355535210193027
0.016	-0.00486762798504616
0.016125	-0.00492866407263294
0.01625	-0.0046845197222858
0.016375	-0.00520332646677348
0.0165	-0.00328068970778973
0.016625	-0.00398260471503777
0.01675	-0.00413519493400473
0.016875	-0.00352483405813687
0.017	-0.0034027618829633
0.017125	-0.00407415884641794
0.01725	-0.00392156862745098
0.017375	-0.0038300144960708
0.0175	-0.00358587014572366
0.017625	-0.00355535210193027
0.01775	-0.0034027618829633
0.017875	-0.00407415884641794
0.018	-0.00471503776607919
0.018125	-0.00294499122606241
0.01825	-0.00349431601434348
0.018375	-0.00376897840848402
0.0185	-0.00343327992675669
0.018625	-0.00398260471503777
0.01875	-0.00404364080262455
0.018875	-0.00401312275883116
0.019	-0.00489814602883955
0.019125	-0.00404364080262455
0.01925	-0.00422674906538491
0.019375	-0.00398260471503777
0.0195	-0.00367742427710384
0.019625	-0.00434882124055848
0.01975	-0.00370794232089723
0.019875	-0.00462348363469902
0.02	-0.00502021820401312
0.020125	-0.00459296559090562
0.02025	-0.00373846036469062
0.020375	-0.00444037537193866
0.0205	-0.00392156862745098
0.020625	-0.00514229037918669
0.02075	-0.00471503776607919
0.020875	-0.00349431601434348
0.021	-0.00532539864194705
0.021125	-0.00422674906538491
0.02125	-0.00495918211642634
0.021375	-0.00483710994125277
0.0215	-0.00367742427710384
0.021625	-0.00392156862745098
0.02175	-0.00395208667124437
0.021875	-0.00404364080262455
0.022	-0.00398260471503777
0.022125	-0.00428778515297169
0.02225	-0.00367742427710384
0.022375	-0.00453192950331884
0.0225	-0.00498970016021973
0.022625	-0.00456244754711223
0.02275	-0.00434882124055848
0.022875	-0.0038300144960708
0.023	-0.00413519493400473
0.023125	-0.00401312275883116
0.02325	-0.00349431601434348
0.023375	-0.00450141145952544
0.0235	-0.00318913557640955
0.023625	-0.00447089341573205
0.02375	-0.00410467689021134
0.023875	-0.00343327992675669
0.024	-0.00331120775158312
0.024125	-0.00495918211642634
0.02425	-0.00416571297779812
0.024375	-0.00410467689021134
0.0245	-0.00416571297779812
0.024625	-0.00370794232089723
0.02475	-0.00395208667124437
0.024875	-0.0038300144960708
0.025	-0.00434882124055848
0.025125	-0.00364690623331044
0.02525	-0.00410467689021134
0.025375	-0.00404364080262455
0.0255	-0.00355535210193027
0.025625	-0.00389105058365759
0.02575	-0.00410467689021134
0.025875	-0.00361638818951705
0.026	-0.0034027618829633
0.026125	-0.00373846036469062
0.02625	-0.00437933928435187
0.026375	-0.00306706340123598
0.0265	-0.00398260471503777
0.026625	-0.00321965362020294
0.02675	-0.00337224383916991
0.026875	-0.00334172579537652
0.027	-0.00267032883192187
0.027125	-0.00379949645227741
0.02725	-0.00398260471503777
0.027375	-0.00398260471503777
0.0275	-0.00437933928435187
0.027625	-0.00444037537193866
0.02775	-0.00447089341573205
0.027875	-0.00373846036469062
0.028	-0.00465400167849241
0.028125	-0.00376897840848402
0.02825	-0.0046845197222858
0.028375	-0.00492866407263294
0.0285	-0.00398260471503777
0.028625	-0.00422674906538491
0.02875	-0.00413519493400473
0.028875	-0.00364690623331044
0.029	-0.00367742427710384
0.029125	-0.00477607385366598
0.02925	-0.00410467689021134
0.029375	-0.00355535210193027
0.0295	-0.00303654535744259
0.029625	-0.00270084687571527
0.02975	-0.00328068970778973
0.029875	-0.00422674906538491
0.03	-0.00349431601434348
0.030125	-0.00352483405813687
0.03025	-0.00483710994125277
0.030375	-0.00346379797055009
0.0305	-0.00386053253986419
0.030625	-0.00480659189745937
0.03075	-0.00337224383916991
0.030875	-0.00352483405813687
0.031	-0.00398260471503777
0.031125	-0.00349431601434348
0.03125	-0.00434882124055848
0.031375	-0.00434882124055848
0.0315	-0.00401312275883116
0.031625	-0.00456244754711223
0.03175	-0.00367742427710384
0.031875	-0.00437933928435187
0.032	-0.00538643472953384
0.032125	-0.00349431601434348
0.03225	-0.00321965362020294
0.032375	-0.00389105058365759
0.0325	-0.00346379797055009
0.032625	-0.0034027618829633
0.03275	-0.00376897840848402
0.032875	-0.00413519493400473
0.033	-0.00328068970778973
0.033125	-0.00489814602883955
0.03325	-0.00532539864194705
0.033375	-0.00413519493400473
0.0335	-0.00306706340123598
0.033625	-0.00376897840848402
0.03375	-0.00428778515297169
0.033875	-0.00386053253986419
0.034	-0.00355535210193027
0.034125	-0.00321965362020294
0.03425	-0.00279240100709545
0.034375	-0.00395208667124437
0.0345	-0.00367742427710384
0.034625	-0.00328068970778973
0.03475	-0.00471503776607919
0.034875	-0.00346379797055009
0.035	-0.00376897840848402
0.035125	-0.00361638818951705
0.03525	-0.00422674906538491
0.035375	-0.00334172579537652
0.0355	-0.00331120775158312
0.035625	-0.00477607385366598
0.03575	-0.00315861753261616
0.035875	-0.00456244754711223
0.036	-0.00373846036469062
0.036125	-0.00379949645227741
0.03625	-0.00413519493400473
0.036375	-0.00386053253986419
0.0365	-0.00474555580987259
0.036625	-0.00364690623331044
0.03675	-0.00306706340123598
0.036875	-0.00419623102159152
0.037	-0.00444037537193866
0.037125	-0.00355535210193027
0.03725	-0.00395208667124437
0.037375	-0.00361638818951705
0.0375	-0.00392156862745098
0.037625	-0.00303654535744259
0.03775	-0.00279240100709545
0.037875	-0.00352483405813687
0.038	-0.00389105058365759
0.038125	-0.00328068970778973
0.03825	-0.00370794232089723
0.038375	-0.00459296559090562
0.0385	-0.00367742427710384
0.038625	-0.00413519493400473
0.03875	-0.00416571297779812
0.038875	-0.00502021820401312
0.039	-0.00456244754711223
0.039125	-0.00263981078812848
0.03925	-0.0038300144960708
0.039375	-0.00312809948882277
0.0395	-0.00456244754711223
0.039625	-0.00462348363469902
0.03975	-0.00358587014572366
0.039875	-0.00453192950331884
0.04	-0.00337224383916991
0.040125	-0.00419623102159152
0.04025	-0.00282291905088884
0.040375	-0.00294499122606241
0.0405	-0.00346379797055009
0.040625	-0.00395208667124437
0.04075	-0.00328068970778973
0.040875	-0.00358587014572366
0.041	-0.00401312275883116
0.041125	-0.00361638818951705
0.04125	-0.00379949645227741
0.041375	-0.00401312275883116
0.0415	-0.00474555580987259
0.041625	-0.00480659189745937
0.04175	-0.00523384451056687
0.041875	-0.00361638818951705
0.042	-0.00325017166399634
0.042125	-0.0034027618829633
0.04225	-0.00440985732814527
0.042375	-0.00404364080262455
0.0425	-0.00325017166399634
0.042625	-0.00459296559090562
0.04275	-0.0046845197222858
0.042875	-0.00376897840848402
0.043	-0.0030060273136492
0.043125	-0.00349431601434348
0.04325	-0.0042572671091783
0.043375	-0.00447089341573205
0.0435	-0.00434882124055848
0.043625	-0.00389105058365759
0.04375	-0.00343327992675669
0.043875	-0.00389105058365759
0.044	-0.00474555580987259
0.044125	-0.00440985732814527
0.04425	-0.00407415884641794
0.044375	-0.00318913557640955
0.0445	-0.00315861753261616
0.044625	-0.00386053253986419
0.04475	-0.00376897840848402
0.044875	-0.00462348363469902
0.045	-0.00392156862745098
0.045125	-0.00419623102159152
0.04525	-0.0042572671091783
0.045375	-0.00447089341573205
0.0455	-0.00331120775158312
0.045625	-0.00306706340123598
0.04575	-0.00413519493400473
0.045875	-0.00465400167849241
0.046	-0.0042572671091783
0.046125	-0.00376897840848402
0.04625	-0.00361638818951705
0.046375	-0.00367742427710384
0.0465	-0.00346379797055009
0.046625	-0.00450141145952544
0.04675	-0.00404364080262455
0.046875	-0.00352483405813687
0.047	-0.00431830319676509
0.047125	-0.00361638818951705
0.04725	-0.00407415884641794
0.047375	-0.00428778515297169
0.0475	-0.00419623102159152
0.047625	-0.00407415884641794
0.04775	-0.00331120775158312
0.047875	-0.00263981078812848
0.048	-0.00291447318226902
0.048125	-0.00370794232089723
0.04825	-0.00337224383916991
0.048375	-0.00370794232089723
0.0485	-0.00343327992675669
0.048625	-0.00346379797055009
0.04875	-0.00410467689021134
0.048875	-0.00318913557640955
0.049	-0.00428778515297169
0.049125	-0.00318913557640955
0.04925	-0.00413519493400473
0.049375	-0.00419623102159152
0.0495	-0.00279240100709545
0.049625	-0.00334172579537652
0.04975	-0.00392156862745098
0.049875	-0.00352483405813687
0.05	-0.00361638818951705
0.050125	-0.00349431601434348
0.05025	-0.00379949645227741
0.050375	-0.0034027618829633
0.0505	-0.00352483405813687
0.050625	-0.00376897840848402
0.05075	-0.0046845197222858
0.050875	-0.00440985732814527
0.051	-0.00312809948882277
0.051125	-0.0038300144960708
0.05125	-0.00355535210193027
0.051375	-0.00367742427710384
0.0515	-0.00361638818951705
0.051625	-0.00306706340123598
0.05175	-0.00260929274433509
0.051875	-0.00346379797055009
0.052	-0.00428778515297169
0.052125	-0.00349431601434348
0.05225	-0.0029755092698558
0.052375	-0.00361638818951705
0.0525	-0.00315861753261616
0.052625	-0.00352483405813687
0.05275	-0.00416571297779812
0.052875	-0.0034027618829633
0.053	-0.0046845197222858
0.053125	-0.00450141145952544
0.05325	-0.00437933928435187
0.053375	-0.00370794232089723
0.0535	-0.00309758144502937
0.053625	-0.00221255817502098
0.05375	-0.0030060273136492
0.053875	-0.00404364080262455
0.054	-0.00303654535744259
0.054125	-0.00263981078812848
0.05425	-0.00303654535744259
0.054375	-0.00361638818951705
0.0545	-0.00239566643778134
0.054625	-0.00263981078812848
0.05475	-0.00245670252536812
0.054875	-0.00407415884641794
0.055	-0.00407415884641794
0.055125	-0.00367742427710384
0.05525	-0.00315861753261616
0.055375	-0.00364690623331044
0.0555	-0.00373846036469062
0.055625	-0.00343327992675669
0.05575	-0.00318913557640955
0.055875	-0.0029755092698558
0.056	-0.00349431601434348
0.056125	-0.00328068970778973
0.05625	-0.00367742427710384
0.056375	-0.00422674906538491
0.0565	-0.00434882124055848
0.056625	-0.00346379797055009
0.05675	-0.00236514839398795
0.056875	-0.00392156862745098
0.057	-0.00352483405813687
0.057125	-0.00282291905088884
0.05725	-0.00392156862745098
0.057375	-0.00355535210193027
0.0575	-0.0030060273136492
0.057625	-0.00367742427710384
0.05775	-0.00279240100709545
0.057875	-0.0034027618829633
0.058	-0.00379949645227741
0.058125	-0.00392156862745098
0.05825	-0.00447089341573205
0.058375	-0.00355535210193027
0.0585	-0.00267032883192187
0.058625	-0.00288395513847562
0.05875	-0.00419623102159152
0.058875	-0.00379949645227741
0.059	-0.00410467689021134
0.059125	-0.0042572671091783
0.05925	-0.00373846036469062
0.059375	-0.00349431601434348
0.0595	-0.00367742427710384
0.059625	-0.00434882124055848
0.05975	-0.00422674906538491
0.059875	-0.00358587014572366
0.06	-0.00459296559090562
0.060125	-0.0038300144960708
0.06025	-0.00358587014572366
0.060375	-0.00422674906538491
0.0605	-0.00401312275883116
0.060625	-0.00294499122606241
0.06075	-0.00270084687571527
0.060875	-0.00285343709468223
0.061	-0.00312809948882277
0.061125	-0.00453192950331884
0.06125	-0.0038300144960708
0.061375	-0.00367742427710384
0.0615	-0.0038300144960708
0.061625	-0.00440985732814527
0.06175	-0.00477607385366598
0.061875	-0.00489814602883955
0.062	-0.00447089341573205
0.062125	-0.00352483405813687
0.06225	-0.00367742427710384
0.062375	-0.00416571297779812
0.0625	-0.00392156862745098
0.062625	-0.00379949645227741
0.06275	-0.0038300144960708
0.062875	-0.0030060273136492
0.063	-0.00389105058365759
0.063125	-0.00389105058365759
0.06325	-0.00389105058365759
0.063375	-0.00392156862745098
0.0635	-0.0042572671091783
0.063625	-0.00434882124055848
0.06375	-0.00413519493400473
0.063875	-0.00386053253986419
0.064	-0.00392156862745098
0.064125	-0.00294499122606241
0.06425	-0.0025482566567483
0.064375	-0.00285343709468223
0.0645	-0.00352483405813687
0.064625	-0.0042572671091783
0.06475	-0.00413519493400473
0.064875	-0.00401312275883116
0.065	-0.00407415884641794
0.065125	-0.00407415884641794
0.06525	-0.00401312275883116
0.065375	-0.00416571297779812
0.0655	-0.00386053253986419
0.065625	-0.00370794232089723
0.06575	-0.00312809948882277
0.065875	-0.0038300144960708
0.066	-0.00462348363469902
0.066125	-0.00428778515297169
0.06625	-0.00407415884641794
0.066375	-0.00404364080262455
0.0665	-0.00343327992675669
0.066625	-0.00389105058365759
0.06675	-0.00398260471503777
0.066875	-0.00386053253986419
0.067	-0.00346379797055009
0.067125	-0.00404364080262455
0.06725	-0.00361638818951705
0.067375	-0.00279240100709545
0.0675	-0.00422674906538491
0.067625	-0.00401312275883116
0.06775	-0.00392156862745098
0.067875	-0.00291447318226902
0.068	-0.00306706340123598
0.068125	-0.00337224383916991
0.06825	-0.00367742427710384
0.068375	-0.0038300144960708
0.0685	-0.00321965362020294
0.068625	-0.00334172579537652
0.06875	-0.00379949645227741
0.068875	-0.0046845197222858
0.069	-0.00358587014572366
0.069125	-0.0046845197222858
0.06925	-0.00386053253986419
0.069375	-0.00309758144502937
0.0695	-0.00376897840848402
0.069625	-0.00358587014572366
0.06975	-0.00321965362020294
0.069875	-0.00355535210193027
0.07	-0.00318913557640955
0.070125	-0.00321965362020294
0.07025	-0.00312809948882277
0.070375	-0.00315861753261616
0.0705	-0.00263981078812848
0.070625	-0.00288395513847562
0.07075	-0.0034027618829633
0.070875	-0.00279240100709545
0.071	-0.00376897840848402
0.071125	-0.0029755092698558
0.07125	-0.00401312275883116
0.071375	-0.00465400167849241
0.0715	-0.00395208667124437
0.071625	-0.00260929274433509
0.07175	-0.00294499122606241
0.071875	-0.00395208667124437
0.072	-0.00410467689021134
0.072125	-0.00404364080262455
0.07225	-0.00404364080262455
0.072375	-0.00386053253986419
0.0725	-0.00349431601434348
0.072625	-0.00364690623331044
0.07275	-0.00437933928435187
0.072875	-0.00444037537193866
0.073	-0.00428778515297169
0.073125	-0.00392156862745098
0.07325	-0.00355535210193027
0.073375	-0.00419623102159152
0.0735	-0.00358587014572366
0.073625	-0.00312809948882277
0.07375	-0.00270084687571527
0.073875	-0.00321965362020294
0.074	-0.00361638818951705
0.074125	-0.00389105058365759
0.07425	-0.00440985732814527
0.074375	-0.00334172579537652
0.0745	-0.0029755092698558
0.074625	-0.00395208667124437
0.07475	-0.00291447318226902
0.074875	-0.00288395513847562
0.075	-0.00218204013122759
0.075125	-0.00263981078812848
0.07525	-0.00279240100709545
0.075375	-0.00285343709468223
0.0755	-0.00395208667124437
0.075625	-0.00325017166399634
0.07575	-0.00285343709468223
0.075875	-0.00282291905088884
0.076	-0.00245670252536812
0.076125	-0.00337224383916991
0.07625	-0.00349431601434348
0.076375	-0.00248722056916152
0.0765	-0.00328068970778973
0.076625	-0.00413519493400473
0.07675	-0.00355535210193027
0.076875	-0.00328068970778973
0.077	-0.00282291905088884
0.077125	-0.00343327992675669
0.07725	-0.00364690623331044
0.077375	-0.00364690623331044
0.0775	-0.00413519493400473
0.077625	-0.00349431601434348
0.07775	-0.00309758144502937
0.077875	-0.00291447318226902
0.078	-0.00376897840848402
0.078125	-0.00224307621881437
0.07825	-0.00190737773708705
0.078375	-0.0021210040436408
0.0785	-0.00276188296330205
0.078625	-0.00227359426260777
0.07875	-0.00318913557640955
0.078875	-0.00346379797055009
0.079	-0.00352483405813687
0.079125	-0.00361638818951705
0.07925	-0.00230411230640116
0.079375	-0.00221255817502098
0.0795	-0.00346379797055009
0.079625	-0.00386053253986419
0.07975	-0.00321965362020294
0.079875	-0.00270084687571527
0.08	-0.00282291905088884
0.080125	-0.0030060273136492
0.08025	-0.00325017166399634
0.080375	-0.00334172579537652
0.0805	-0.00239566643778134
0.080625	-0.00367742427710384
0.08075	-0.00328068970778973
0.080875	-0.00325017166399634
0.081	-0.00431830319676509
0.081125	-0.00349431601434348
0.08125	-0.00373846036469062
0.081375	-0.00282291905088884
0.0815	-0.00343327992675669
0.081625	-0.00331120775158312
0.08175	-0.00343327992675669
0.081875	-0.00410467689021134
0.082	-0.00263981078812848
0.082125	-0.00279240100709545
0.08225	-0.00419623102159152
0.082375	-0.00248722056916152
0.0825	-0.00325017166399634
0.082625	-0.00343327992675669
0.08275	-0.00248722056916152
0.082875	-0.00291447318226902
0.083	-0.00303654535744259
0.083125	-0.00331120775158312
0.08325	-0.0025787747005417
0.083375	-0.00431830319676509
0.0835	-0.00337224383916991
0.083625	-0.00401312275883116
0.08375	-0.00331120775158312
0.083875	-0.00395208667124437
0.084	-0.00389105058365759
0.084125	-0.00367742427710384
0.08425	-0.00364690623331044
0.084375	-0.00315861753261616
0.0845	-0.00343327992675669
0.084625	-0.00288395513847562
0.08475	-0.00386053253986419
0.084875	-0.00431830319676509
0.085	-0.00291447318226902
0.085125	-0.00285343709468223
0.08525	-0.00349431601434348
0.085375	-0.00312809948882277
0.0855	-0.0042572671091783
0.085625	-0.00416571297779812
0.08575	-0.00379949645227741
0.085875	-0.00343327992675669
0.086	-0.00459296559090562
0.086125	-0.00291447318226902
0.08625	-0.00236514839398795
0.086375	-0.00431830319676509
0.0865	-0.00410467689021134
0.086625	-0.00352483405813687
0.08675	-0.00328068970778973
0.086875	-0.00437933928435187
0.087	-0.00325017166399634
0.087125	-0.00361638818951705
0.08725	-0.00398260471503777
0.087375	-0.00352483405813687
0.0875	-0.00395208667124437
0.087625	-0.00401312275883116
0.08775	-0.00318913557640955
0.087875	-0.00431830319676509
0.088	-0.00334172579537652
0.088125	-0.00437933928435187
0.08825	-0.00422674906538491
0.088375	-0.00361638818951705
0.0885	-0.00465400167849241
0.088625	-0.00251773861295491
0.08875	-0.00364690623331044
0.088875	-0.00239566643778134
0.089	-0.00361638818951705
0.089125	-0.0034027618829633
0.08925	-0.00221255817502098
0.089375	-0.0038300144960708
0.0895	-0.00376897840848402
0.089625	-0.00318913557640955
0.08975	-0.00349431601434348
0.089875	-0.00285343709468223
0.09	-0.00291447318226902
0.090125	-0.00389105058365759
0.09025	-0.00285343709468223
0.090375	-0.00306706340123598
0.0905	-0.00285343709468223
0.090625	-0.00367742427710384
0.09075	-0.00407415884641794
0.090875	-0.00416571297779812
0.091	-0.00334172579537652
0.091125	-0.00325017166399634
0.09125	-0.00309758144502937
0.091375	-0.00334172579537652
0.0915	-0.00459296559090562
0.091625	-0.00444037537193866
0.09175	-0.0042572671091783
0.091875	-0.00312809948882277
0.092	-0.00376897840848402
0.092125	-0.00355535210193027
0.09225	-0.0038300144960708
0.092375	-0.0042572671091783
0.0925	-0.00376897840848402
0.092625	-0.0042572671091783
0.09275	-0.00343327992675669
0.092875	-0.00364690623331044
0.093	-0.00407415884641794
0.093125	-0.00270084687571527
0.09325	-0.00251773861295491
0.093375	-0.00273136491950866
0.0935	-0.00367742427710384
0.093625	-0.00471503776607919
0.09375	-0.00428778515297169
0.093875	-0.00404364080262455
0.094	-0.00361638818951705
0.094125	-0.00285343709468223
0.09425	-0.00361638818951705
0.094375	-0.00321965362020294
0.0945	-0.00328068970778973
0.094625	-0.00373846036469062
0.09475	-0.00389105058365759
0.094875	-0.00334172579537652
0.095	-0.00358587014572366
0.095125	-0.00471503776607919
0.09525	-0.00431830319676509
0.095375	-0.00370794232089723
0.0955	-0.00389105058365759
0.095625	-0.00386053253986419
0.09575	-0.0034027618829633
0.095875	-0.00370794232089723
0.096	-0.00193789578088045
0.096125	-0.00285343709468223
0.09625	-0.00392156862745098
0.096375	-0.00309758144502937
0.0965	-0.00419623102159152
0.096625	-0.00245670252536812
0.09675	-0.00306706340123598
0.096875	-0.00428778515297169
0.097	-0.00306706340123598
0.097125	-0.00248722056916152
0.09725	-0.00285343709468223
0.097375	-0.00263981078812848
0.0975	-0.00370794232089723
0.097625	-0.00434882124055848
0.09775	-0.00364690623331044
0.097875	-0.00315861753261616
0.098	-0.0025787747005417
0.098125	-0.00276188296330205
0.09825	-0.00288395513847562
0.098375	-0.00352483405813687
0.0985	-0.00410467689021134
0.098625	-0.00376897840848402
0.09875	-0.0025482566567483
0.098875	-0.00218204013122759
0.099	-0.00267032883192187
0.099125	-0.00218204013122759
0.09925	-0.00334172579537652
0.099375	-0.00367742427710384
0.0995	-0.00355535210193027
0.099625	-0.00328068970778973
0.09975	-0.00273136491950866
0.099875	-0.00416571297779812
0.1	-0.00367742427710384
0.100125	-0.00379949645227741
0.10025	-0.00303654535744259
0.100375	-0.00260929274433509
0.1005	-0.00334172579537652
0.100625	-0.0034027618829633
0.10075	-0.00376897840848402
0.100875	-0.00328068970778973
0.101	-0.00343327992675669
0.101125	-0.00346379797055009
0.10125	-0.00373846036469062
0.101375	-0.00370794232089723
0.1015	-0.0038300144960708
0.101625	-0.00413519493400473
0.10175	-0.00346379797055009
0.101875	-0.00440985732814527
0.102	-0.00407415884641794
0.102125	-0.00291447318226902
0.10225	-0.00337224383916991
0.102375	-0.00251773861295491
0.1025	-0.00205996795605402
0.102625	-0.00273136491950866
0.10275	-0.00361638818951705
0.102875	-0.00343327992675669
0.103	-0.00355535210193027
0.103125	-0.00358587014572366
0.10325	-0.00260929274433509
0.103375	-0.00294499122606241
0.1035	-0.00379949645227741
0.103625	-0.00376897840848402
0.10375	-0.00367742427710384
0.103875	-0.0038300144960708
0.104	-0.00315861753261616
0.104125	-0.00260929274433509
0.10425	-0.00361638818951705
0.104375	-0.00392156862745098
0.1045	-0.00352483405813687
0.104625	-0.00343327992675669
0.10475	-0.0025482566567483
0.104875	-0.0042572671091783
0.105	-0.00364690623331044
0.105125	-0.00260929274433509
0.10525	-0.0030060273136492
0.105375	-0.00205996795605402
0.1055	-0.00321965362020294
0.105625	-0.00260929274433509
0.10575	-0.00361638818951705
0.105875	-0.00355535210193027
0.106	-0.00263981078812848
0.106125	-0.0034027618829633
0.10625	-0.00270084687571527
0.106375	-0.00346379797055009
0.1065	-0.00361638818951705
0.106625	-0.00358587014572366
0.10675	-0.00205996795605402
0.106875	-0.00251773861295491
0.107	-0.00355535210193027
0.107125	-0.0038300144960708
0.10725	-0.00379949645227741
0.107375	-0.00328068970778973
0.1075	-0.0029755092698558
0.107625	-0.00315861753261616
0.10775	-0.00401312275883116
0.107875	-0.00349431601434348
0.108	-0.00242618448157473
0.108125	-0.00270084687571527
0.10825	-0.00306706340123598
0.108375	-0.00294499122606241
0.1085	-0.00331120775158312
0.108625	-0.00337224383916991
0.10875	-0.00352483405813687
0.108875	-0.00334172579537652
0.109	-0.00376897840848402
0.109125	-0.0030060273136492
0.10925	-0.00181582360570687
0.109375	-0.00187685969329366
0.1095	-0.00248722056916152
0.109625	-0.0021515220874342
0.10975	-0.00279240100709545
0.109875	-0.00352483405813687
0.11	-0.0021210040436408
0.110125	-0.0016937514305333
0.11025	-0.00196841382467384
0.110375	-0.00163271534294652
0.1105	-0.00315861753261616
0.110625	-0.00294499122606241
0.11075	-0.00132753490501259
0.110875	-0.00279240100709545
0.111	-0.00267032883192187
0.111125	-0.00306706340123598
0.11125	-0.00242618448157473
0.111375	-0.00279240100709545
0.1115	-0.00303654535744259
0.111625	-0.00209048599984741
0.11175	-0.00309758144502937
0.111875	-0.00312809948882277
0.112	-0.00325017166399634
0.112125	-0.0025482566567483
0.11225	-0.00270084687571527
0.112375	-0.00401312275883116
0.1125	-0.00288395513847562
0.112625	-0.00187685969329366
0.11275	-0.00218204013122759
0.112875	-0.00279240100709545
0.113	-0.00386053253986419
0.113125	-0.00263981078812848
0.11325	-0.00306706340123598
0.113375	-0.00370794232089723
0.1135	-0.00312809948882277
0.113625	-0.00181582360570687
0.11375	-0.00209048599984741
0.113875	-0.00334172579537652
0.114	-0.00334172579537652
0.114125	-0.00236514839398795
0.11425	-0.00242618448157473
0.114375	-0.00224307621881437
0.1145	-0.00260929274433509
0.114625	-0.00318913557640955
0.11475	-0.00263981078812848
0.114875	-0.00346379797055009
0.115	-0.00337224383916991
0.115125	-0.00337224383916991
0.11525	-0.00224307621881437
0.115375	-0.00288395513847562
0.1155	-0.00270084687571527
0.115625	-0.00303654535744259
0.11575	-0.00270084687571527
0.115875	-0.0034027618829633
0.116	-0.0029755092698558
0.116125	-0.00205996795605402
0.11625	-0.00282291905088884
0.116375	-0.0029755092698558
0.1165	-0.00312809948882277
0.116625	-0.00288395513847562
0.11675	-0.00291447318226902
0.116875	-0.00260929274433509
0.117	-0.00276188296330205
0.117125	-0.00358587014572366
0.11725	-0.00309758144502937
0.117375	-0.00196841382467384
0.1175	-0.00318913557640955
0.117625	-0.00361638818951705
0.11775	-0.00221255817502098
0.117875	-0.00282291905088884
0.118	-0.00334172579537652
0.118125	-0.00199893186846723
0.11825	-0.00190737773708705
0.118375	-0.00209048599984741
0.1185	-0.0016937514305333
0.118625	-0.00239566643778134
0.11875	-0.00303654535744259
0.118875	-0.00227359426260777
0.119	-0.0025787747005417
0.119125	-0.0029755092698558
0.11925	-0.00273136491950866
0.119375	-0.00306706340123598
0.1195	-0.00325017166399634
0.119625	-0.00187685969329366
0.11975	-0.00196841382467384
0.119875	-0.00224307621881437
0.12	-0.00218204013122759
0.120125	-0.00349431601434348
0.12025	-0.00312809948882277
0.120375	-0.00248722056916152
0.1205	-0.00337224383916991
0.120625	-0.0029755092698558
0.12075	-0.00205996795605402
0.120875	-0.00306706340123598
0.121	-0.00334172579537652
0.121125	-0.00346379797055009
0.12125	-0.00376897840848402
0.121375	-0.00260929274433509
0.1215	-0.00230411230640116
0.121625	-0.00325017166399634
0.12175	-0.00303654535744259
0.121875	-0.0025482566567483
0.122	-0.00260929274433509
0.122125	-0.00224307621881437
0.12225	-0.00285343709468223
0.122375	-0.00379949645227741
0.1225	-0.00373846036469062
0.122625	-0.00373846036469062
0.12275	-0.00285343709468223
0.122875	-0.00303654535744259
0.123	-0.00349431601434348
0.123125	-0.00279240100709545
0.12325	-0.00328068970778973
0.123375	-0.00263981078812848
0.1235	-0.00325017166399634
0.123625	-0.00315861753261616
0.12375	-0.00267032883192187
0.123875	-0.0025482566567483
0.124	-0.00358587014572366
0.124125	-0.00285343709468223
0.12425	-0.0030060273136492
0.124375	-0.00318913557640955
0.1245	-0.00148012512397955
0.124625	-0.00288395513847562
0.12475	-0.00282291905088884
0.124875	-0.00263981078812848
0.125	-0.0025787747005417
0.125125	-0.00315861753261616
0.12525	-0.00251773861295491
0.125375	-0.00288395513847562
0.1255	-0.00233463035019455
0.125625	-0.0021210040436408
0.12575	-0.00303654535744259
0.125875	-0.00276188296330205
0.126	-0.00288395513847562
0.126125	-0.00184634164950027
0.12625	-0.00218204013122759
0.126375	-0.00224307621881437
0.1265	-0.00193789578088045
0.126625	-0.00196841382467384
0.12675	-0.0030060273136492
0.126875	-0.00312809948882277
0.127	-0.00355535210193027
0.127125	-0.00321965362020294
0.12725	-0.00328068970778973
0.127375	-0.00315861753261616
0.1275	-0.00205996795605402
0.127625	-0.00242618448157473
0.12775	-0.00303654535744259
0.127875	-0.00306706340123598
0.128	-0.00321965362020294
0.128125	-0.00276188296330205
0.12825	-0.00209048599984741
0.128375	-0.00291447318226902
0.1285	-0.00160219729915312
0.128625	-0.00282291905088884
0.12875	-0.00334172579537652
0.128875	-0.00270084687571527
0.129	-0.00260929274433509
0.129125	-0.00276188296330205
0.12925	-0.0025787747005417
0.129375	-0.00263981078812848
0.1295	-0.00364690623331044
0.129625	-0.0025482566567483
0.12975	-0.00346379797055009
0.129875	-0.00331120775158312
0.13	-0.00248722056916152
0.130125	-0.00248722056916152
0.13025	-0.0029755092698558
0.130375	-0.00325017166399634
0.1305	-0.00303654535744259
0.130625	-0.00205996795605402
0.13075	-0.00285343709468223
0.130875	-0.00331120775158312
0.131	-0.00273136491950866
0.131125	-0.00331120775158312
0.13125	-0.00263981078812848
0.131375	-0.00260929274433509
0.1315	-0.00321965362020294
0.131625	-0.00248722056916152
0.13175	-0.00321965362020294
0.131875	-0.00334172579537652
0.132	-0.00205996795605402
0.132125	-0.00294499122606241
0.13225	-0.00227359426260777
0.132375	-0.00239566643778134
0.1325	-0.00224307621881437
0.132625	-0.00245670252536812
0.13275	-0.00276188296330205
0.132875	-0.00230411230640116
0.133	-0.0029755092698558
0.133125	-0.00285343709468223
0.13325	-0.00282291905088884
0.133375	-0.0025482566567483
0.1335	-0.00331120775158312
0.133625	-0.0025482566567483
0.13375	-0.00282291905088884
0.133875	-0.00273136491950866
0.134	-0.0025787747005417
0.134125	-0.00242618448157473
0.13425	-0.0025482566567483
0.134375	-0.00190737773708705
0.1345	-0.00270084687571527
0.134625	-0.00260929274433509
0.13475	-0.00221255817502098
0.134875	-0.00245670252536812
0.135	-0.0025787747005417
0.135125	-0.00309758144502937
0.13525	-0.00288395513847562
0.135375	-0.00285343709468223
0.1355	-0.00376897840848402
0.135625	-0.00285343709468223
0.13575	-0.0025482566567483
0.135875	-0.00273136491950866
0.136	-0.00196841382467384
0.136125	-0.00282291905088884
0.13625	-0.00346379797055009
0.136375	-0.0025482566567483
0.1365	-0.00218204013122759
0.136625	-0.0029755092698558
0.13675	-0.00285343709468223
0.136875	-0.00187685969329366
0.137	-0.00163271534294652
0.137125	-0.00205996795605402
0.13725	-0.00309758144502937
0.137375	-0.0029755092698558
0.1375	-0.00270084687571527
0.137625	-0.00282291905088884
0.13775	-0.00242618448157473
0.137875	-0.00239566643778134
0.138	-0.00276188296330205
0.138125	-0.0021210040436408
0.13825	-0.0038300144960708
0.138375	-0.00312809948882277
0.1385	-0.00242618448157473
0.138625	-0.00306706340123598
0.13875	-0.00270084687571527
0.138875	-0.00364690623331044
0.139	-0.00218204013122759
0.139125	-0.00282291905088884
0.13925	-0.00358587014572366
0.139375	-0.00251773861295491
0.1395	-0.00227359426260777
0.139625	-0.00242618448157473
0.13975	-0.00267032883192187
0.139875	-0.00187685969329366
0.14	-0.00291447318226902
0.140125	-0.00331120775158312
0.14025	-0.00270084687571527
0.140375	-0.00318913557640955
0.1405	-0.00337224383916991
0.140625	-0.00367742427710384
0.14075	-0.00334172579537652
0.140875	-0.00175478751812009
0.141	-0.0029755092698558
0.141125	-0.00334172579537652
0.14125	-0.00227359426260777
0.141375	-0.00303654535744259
0.1415	-0.00267032883192187
0.141625	-0.00273136491950866
0.14175	-0.00312809948882277
0.141875	-0.00288395513847562
0.142	-0.00273136491950866
0.142125	-0.00279240100709545
0.14225	-0.0029755092698558
0.142375	-0.00263981078812848
0.1425	-0.00138857099259937
0.142625	-0.0021210040436408
0.14275	-0.0017242694743267
0.142875	-0.00285343709468223
0.143	-0.00401312275883116
0.143125	-0.00315861753261616
0.14325	-0.0034027618829633
0.143375	-0.00193789578088045
0.1435	-0.00349431601434348
0.143625	-0.00306706340123598
0.14375	-0.00267032883192187
0.143875	-0.00361638818951705
0.144	-0.00209048599984741
0.144125	-0.00294499122606241
0.14425	-0.00245670252536812
0.144375	-0.00315861753261616
0.1445	-0.00276188296330205
0.144625	-0.00279240100709545
0.14475	-0.00285343709468223
0.144875	-0.00270084687571527
0.145	-0.00267032883192187
0.145125	-0.00187685969329366
0.14525	-0.00202944991226062
0.145375	-0.00267032883192187
0.1455	-0.00349431601434348
0.145625	-0.00270084687571527
0.14575	-0.0021210040436408
0.145875	-0.00279240100709545
0.146	-0.00291447318226902
0.146125	-0.00184634164950027
0.14625	-0.00248722056916152
0.146375	-0.00337224383916991
0.1465	-0.00181582360570687
0.146625	-0.00303654535744259
0.14675	-0.00386053253986419
0.146875	-0.00230411230640116
0.147	-0.00251773861295491
0.147125	-0.00291447318226902
0.14725	-0.0030060273136492
0.147375	-0.00202944991226062
0.1475	-0.00218204013122759
0.147625	-0.00361638818951705
0.14775	-0.00239566643778134
0.147875	-0.00196841382467384
0.148	-0.0025787747005417
0.148125	-0.00358587014572366
0.14825	-0.00273136491950866
0.148375	-0.00251773861295491
0.1485	-0.00343327992675669
0.148625	-0.00224307621881437
0.14875	-0.00245670252536812
0.148875	-0.00248722056916152
0.149	-0.00288395513847562
0.149125	-0.0029755092698558
0.14925	-0.00248722056916152
0.149375	-0.00202944991226062
0.1495	-0.00202944991226062
0.149625	-0.00202944991226062
0.14975	-0.00318913557640955
0.149875	-0.00306706340123598
0.15	-0.00184634164950027
0.150125	-0.00181582360570687
0.15025	-0.00154116121156634
0.150375	-0.0017242694743267
0.1505	-0.00184634164950027
0.150625	-0.0016937514305333
0.15075	-0.00154116121156634
0.150875	-0.0021210040436408
0.151	-0.00242618448157473
0.151125	-0.00270084687571527
0.15125	-0.00294499122606241
0.151375	-0.00190737773708705
0.1515	-0.00270084687571527
0.151625	-0.00358587014572366
0.15175	-0.00218204013122759
0.151875	-0.00263981078812848
0.152	-0.00175478751812009
0.152125	-0.00178530556191348
0.15225	-0.0030060273136492
0.152375	-0.00251773861295491
0.1525	-0.00196841382467384
0.152625	-0.00148012512397955
0.15275	-0.00160219729915312
0.152875	-0.00282291905088884
0.153	-0.00306706340123598
0.153125	-0.00193789578088045
0.15325	-0.00199893186846723
0.153375	-0.0017242694743267
0.1535	-0.00245670252536812
0.153625	-0.00328068970778973
0.15375	-0.0038300144960708
0.153875	-0.00306706340123598
0.154	-0.00279240100709545
0.154125	-0.00346379797055009
0.15425	-0.00334172579537652
0.154375	-0.00248722056916152
0.1545	-0.00236514839398795
0.154625	-0.00205996795605402
0.15475	-0.00291447318226902
0.154875	-0.00376897840848402
0.155	-0.0030060273136492
0.155125	-0.00349431601434348
0.15525	-0.0029755092698558
0.155375	-0.00239566643778134
0.1555	-0.00312809948882277
0.155625	-0.00334172579537652
0.15575	-0.00315861753261616
0.155875	-0.00358587014572366
0.156	-0.00337224383916991
0.156125	-0.00321965362020294
0.15625	-0.00303654535744259
0.156375	-0.00248722056916152
0.1565	-0.00346379797055009
0.156625	-0.00245670252536812
0.15675	-0.00224307621881437
0.156875	-0.00190737773708705
0.157	-0.00209048599984741
0.157125	-0.00202944991226062
0.15725	-0.00227359426260777
0.157375	-0.00315861753261616
0.1575	-0.00245670252536812
0.157625	-0.00199893186846723
0.15775	-0.00233463035019455
0.157875	-0.00346379797055009
0.158	-0.00349431601434348
0.158125	-0.00325017166399634
0.15825	-0.00260929274433509
0.158375	-0.00331120775158312
0.1585	-0.00239566643778134
0.158625	-0.00209048599984741
0.15875	-0.00267032883192187
0.158875	-0.0021210040436408
0.159	-0.00267032883192187
0.159125	-0.00260929274433509
0.15925	-0.0030060273136492
0.159375	-0.00267032883192187
0.1595	-0.00245670252536812
0.159625	-0.00346379797055009
0.15975	-0.0030060273136492
0.159875	-0.00218204013122759
0.16	-0.00282291905088884
0.160125	-0.00282291905088884
0.16025	-0.00334172579537652
0.160375	-0.00331120775158312
0.1605	-0.00251773861295491
0.160625	-0.00233463035019455
0.16075	-0.00230411230640116
0.160875	-0.00352483405813687
0.161	-0.0029755092698558
0.161125	-0.00196841382467384
0.16125	-0.0025787747005417
0.161375	-0.00321965362020294
0.1615	-0.00236514839398795
0.161625	-0.00175478751812009
0.16175	-0.00321965362020294
0.161875	-0.00315861753261616
0.162	-0.00245670252536812
0.162125	-0.00224307621881437
0.16225	-0.00267032883192187
0.162375	-0.00306706340123598
0.1625	-0.00288395513847562
0.162625	-0.0017242694743267
0.16275	-0.00184634164950027
0.162875	-0.00166323338673991
0.163	-0.0029755092698558
0.163125	-0.00306706340123598
0.16325	-0.00355535210193027
0.163375	-0.00337224383916991
0.1635	-0.00209048599984741
0.163625	-0.00245670252536812
0.16375	-0.00309758144502937
0.163875	-0.00370794232089723
0.164	-0.00294499122606241
0.164125	-0.00328068970778973
0.16425	-0.00248722056916152
0.164375	-0.000869764248111696
0.1645	-4.57770656900893e-05
0.164625	-0.000839246204318303
0.16475	-0.000228885328450446
0.164875	-0.000320439459830625
0.165	-0.000473029678797589
0.165125	-0.000625619897764553
0.16525	-0.000595101853971161
0.165375	0.000473029678797589
0.1655	7.62951094834821e-05
0.165625	-0.000564583810177768
0.16575	-0.000656137941557946
0.165875	-0.000930800335698482
0.166	-0.000930800335698482
0.166125	-0.000534065766384375
0.16625	-0.000778210116731518
0.166375	0.0021515220874342
0.1665	0.00270084687571527
0.166625	0.00233463035019455
0.16675	0.00157167925535973
0.166875	0.00242618448157473
0.167	0.00315861753261616
0.167125	0.00270084687571527
0.16725	0.00184634164950027
0.167375	0.00108339055466545
0.1675	0.00144960708018616
0.167625	0.0017242694743267
0.16775	0.000991836423285267
0.167875	0.00117494468604562
0.168	0.00138857099259937
0.168125	0.00151064316777295
0.16825	0.00166323338673991
0.168375	0.00410467689021134
0.1685	0.00419623102159152
0.168625	0.00343327992675669
0.16875	0.00526436255436027
0.168875	0.0042572671091783
0.169	0.00379949645227741
0.169125	0.00370794232089723
0.16925	0.00337224383916991
0.169375	0.00379949645227741
0.1695	0.00346379797055009
0.169625	0.00376897840848402
0.16975	0.00483710994125277
0.169875	0.00358587014572366
0.17	0.00434882124055848
0.170125	0.00416571297779812
0.17025	0.00312809948882277
0.170375	0.00422674906538491
0.1705	0.00624093995574884
0.170625	0.00727855344472419
0.17075	0.00752269779507134
0.170875	0.00566109712367437
0.171	0.00694285496299687
0.171125	0.00648508430609598
0.17125	0.00648508430609598
0.171375	0.00602731364919509
0.1715	0.00697337300679026
0.171625	0.00782787823300526
0.17175	0.00611886778057527
0.171875	0.0076752880140383
0.172	0.00688181887541009
0.172125	0.00645456626230259
0.17225	0.00691233691920348
0.172375	0.00706492713817044
0.1725	0.00883497367818723
0.172625	0.00862134737163348
0.17275	0.00910963607232776
0.172875	0.00971999694819562
0.173	0.00941481651026169
0.173125	0.0098115510795758
0.17325	0.00984206912336919
0.173375	0.0101167315175097
0.1735	0.00926222629129473
0.173625	0.00910963607232776
0.17375	0.00959792477302205
0.173875	0.00904859998474098
0.174	0.00950637064164187
0.174125	0.00862134737163348
0.17425	0.00794995040817884
0.174375	0.00849927519645991
0.1745	0.0101777676050965
0.174625	0.0115205615320058
0.17475	0.0101472495613031
0.174875	0.0116731517509728
0.175	0.0118867780575265
0.175125	0.012161440451667
0.17525	0.0119172961013199
0.175375	0.0118562600137331
0.1755	0.0121919584954604
0.175625	0.0110933089188983
0.17575	0.0105439841306172
0.175875	0.0108491645685512
0.176	0.0109712367437247
0.176125	0.0112764171816587
0.17625	0.0113984893568322
0.176375	0.0117647058823529
0.1765	0.012314030670634
0.176625	0.013015945677882
0.17675	0.013321126115816
0.176875	0.0118867780575265
0.177	0.0119172961013199
0.177125	0.0124055848020142
0.17725	0.011459525444419
0.177375	0.0119172961013199
0.1775	0.0127718013275349
0.177625	0.0117647058823529
0.17775	0.0120393682764935
0.177875	0.0124055848020142
0.178	0.0121919584954604
0.178125	0.0120393682764935
0.17825	0.0111848630502785
0.178375	0.0125581750209812
0.1785	0.0117036697947662
0.178625	0.0131074998092622
0.17875	0.0148165102616922
0.178875	0.0142977035172045
0.179	0.0143587396047913
0.179125	0.0154573891813535
0.17925	0.0156710154879072
0.179375	0.0153963530937667
0.1795	0.0139314869916838
0.179625	0.0142671854734112
0.17975	0.014023041123064
0.179875	0.0136873426413367
0.18	0.0135957885099565
0.180125	0.0132295719844358
0.18025	0.0138094148165103
0.180375	0.0144808117799649
0.1805	0.0148165102616922
0.180625	0.0146944380865187
0.18075	0.0163424124513619
0.180875	0.0156404974441138
0.181	0.0162203402761883
0.181125	0.0155184252689403
0.18125	0.0152437628747997
0.181375	0.0171053635461967
0.1815	0.015884641794461
0.181625	0.0153658350499733
0.18175	0.015884641794461
0.181875	0.0157930876630808
0.182	0.0165560387579156
0.182125	0.0145723659113451
0.18225	0.0156099794003204
0.182375	0.0156099794003204
0.1825	0.0162203402761883
0.182625	0.015732051575494
0.18275	0.0160982681010147
0.182875	0.0178072785534447
0.183	0.0168917372396429
0.183125	0.0179293507286183
0.18325	0.0170138094148165
0.183375	0.0169222552834363
0.1835	0.0175326161593042
0.183625	0.0166781109330892
0.18375	0.0169832913710231
0.183875	0.0170443274586099
0.184	0.0171358815899901
0.184125	0.0182650492103456
0.18425	0.0179293507286183
0.184375	0.0174715800717174
0.1845	0.0168001831082628
0.184625	0.0160372320134279
0.18475	0.0178683146410315
0.184875	0.0200961318379492
0.185	0.0204623483634699
0.185125	0.0202487220569162
0.18525	0.0190890363927672
0.185375	0.0194857709620813
0.1855	0.019302662699321
0.185625	0.0190585183489738
0.18575	0.0187838559548333
0.185875	0.0191805905241474
0.186	0.0200961318379492
0.186125	0.0191805905241474
0.18625	0.0190280003051804
0.186375	0.0186007476920729
0.1865	0.0180209048599985
0.186625	0.0188448920424201
0.18675	0.0187533379110399
0.186875	0.0220187685969329
0.187	0.0219272144655528
0.187125	0.0219272144655528
0.18725	0.021866178377966
0.187375	0.0229953459983215
0.1875	0.0232089723048753
0.187625	0.0229037918669413
0.18775	0.0222323949034867
0.187875	0.0220187685969329
0.188	0.0222018768596933
0.188125	0.0212863355458915
0.18825	0.0223544670786603
0.188375	0.0223849851224537
0.1885	0.0219882505531395
0.188625	0.0216220340276188
0.18875	0.0213778896772717
0.188875	0.0229648279545281
0.189	0.0239414053559167
0.189125	0.0239719233997101
0.18925	0.024124513618677
0.189375	0.0236362249179828
0.1895	0.0240024414435035
0.189625	0.0233615625238422
0.18975	0.0240024414435035
0.189875	0.0236972610055695
0.19	0.0222323949034867
0.190125	0.0221713588158999
0.19025	0.0222934309910735
0.190375	0.0218966964217594
0.1905	0.0229037918669413
0.190625	0.0229953459983215
0.19075	0.0220492866407263
0.190875	0.023575188830396
0.191	0.0233310444800488
0.191125	0.0241855497062638
0.19125	0.0246433203631647
0.191375	0.0233615625238422
0.1915	0.0233615625238422
0.191625	0.0238498512245365
0.19175	0.0247959105821317
0.191875	0.0236667429617761
0.192	0.0230869001297017
0.192125	0.0237582970931563
0.19225	0.0232394903486687
0.192375	0.0240634775310903
0.1925	0.0247653925383383
0.192625	0.0235141527428092
0.19275	0.0228732738231479
0.192875	0.0225986114290074
0.193	0.0230563820859083
0.193125	0.0251621271076524
0.19325	0.024124513618677
0.193375	0.0241550316624704
0.1935	0.0239719233997101
0.193625	0.0245822842755779
0.19375	0.0245517662317845
0.193875	0.0230869001297017
0.194	0.0242465857938506
0.194125	0.0249485008010987
0.19425	0.024124513618677
0.194375	0.0236667429617761
0.1945	0.0237582970931563
0.194625	0.0240634775310903
0.19475	0.0247043564507515
0.194875	0.0247653925383383
0.195	0.025284199282826
0.195125	0.0254673075455863
0.19525	0.0255283436331731
0.195375	0.0253757534142061
0.1955	0.024979018844892
0.195625	0.0250095368886854
0.19575	0.0250095368886854
0.195875	0.0257419699397269
0.196	0.0258640421149004
0.196125	0.0256504158083467
0.19625	0.0257724879835203
0.196375	0.0253452353704128
0.1965	0.0240939955748837
0.196625	0.0241550316624704
0.19675	0.0249485008010987
0.196875	0.0243686579690242
0.197	0.0250095368886854
0.197125	0.0248264286259251
0.19725	0.024429694056611
0.197375	0.0248569466697185
0.1975	0.0245212481879911
0.197625	0.0251926451514458
0.19775	0.0247653925383383
0.197875	0.0247043564507515
0.198	0.024429694056611
0.198125	0.0238498512245365
0.19825	0.0231479362172885
0.198375	0.0240329594872969
0.1985	0.0241855497062638
0.198625	0.0243381399252308
0.19875	0.0249179827573053
0.198875	0.0235141527428092
0.199	0.0243381399252308
0.199125	0.0243686579690242
0.19925	0.024429694056611
0.199375	0.0253757534142061
0.1995	0.0248264286259251
0.199625	0.0260776684214542
0.19975	0.0252536812390326
0.199875	0.0243686579690242
0.2	0.0242160677500572
0.200125	0.024277103837644
0.20025	0.0252536812390326
0.200375	0.0243991760128176
0.2005	0.0254673075455863
0.200625	0.0246128023193713
0.20075	0.0242160677500572
0.200875	0.0245517662317845
0.201	0.024277103837644
0.201125	0.0247959105821317
0.20125	0.0255893797207599
0.201375	0.0248569466697185
0.2015	0.0242160677500572
0.201625	0.0246738384069581
0.20175	0.0237888151369497
0.201875	0.0237277790493629
0.202	0.0235141527428092
0.202125	0.023422598611429
0.20225	0.0244907301441978
0.202375	0.0236972610055695
0.2025	0.0240329594872969
0.202625	0.0248874647135119
0.20275	0.0247653925383383
0.202875	0.0244907301441978
0.203	0.0236972610055695
0.203125	0.024277103837644
0.20325	0.0247348744945449
0.203375	0.0241550316624704
0.2035	0.0245517662317845
0.203625	0.0257114518959335
0.20375	0.0253452353704128
0.203875	0.0250400549324788
0.204	0.0243686579690242
0.204125	0.0256504158083467
0.20425	0.0263523308155947
0.204375	0.0252536812390326
0.2045	0.025284199282826
0.204625	0.025833524071107
0.20475	0.0253147173266194
0.204875	0.0247653925383383
0.205	0.0247043564507515
0.205125	0.0253757534142061
0.20525	0.0241550316624704
0.205375	0.0246128023193713
0.2055	0.0253147173266194
0.205625	0.0251010910200656
0.20575	0.0247043564507515
0.205875	0.0248874647135119
0.206	0.0263523308155947
0.206125	0.0243381399252308
0.20625	0.0249179827573053
0.206375	0.0253147173266194
0.2065	0.0247348744945449
0.206625	0.0241550316624704
0.20675	0.0246738384069581
0.206875	0.024277103837644
0.207	0.0247653925383383
0.207125	0.0245517662317845
0.20725	0.0237277790493629
0.207375	0.025131609063859
0.2075	0.0252536812390326
0.207625	0.0248569466697185
0.20775	0.023575188830396
0.207875	0.0243991760128176
0.208	0.0237277790493629
0.208125	0.0247653925383383
0.20825	0.0247959105821317
0.208375	0.0239108873121233
0.2085	0.0236362249179828
0.208625	0.0230869001297017
0.20875	0.0239108873121233
0.208875	0.0239414053559167
0.209	0.0244907301441978
0.209125	0.0240634775310903
0.20925	0.0236667429617761
0.209375	0.0242465857938506
0.2095	0.0229343099107347
0.209625	0.0230258640421149
0.20975	0.0240939955748837
0.209875	0.0228732738231479
0.21	0.0228427557793545
0.210125	0.0228427557793545
0.21025	0.0237582970931563
0.210375	0.0244602121004044
0.2105	0.0232394903486687
0.210625	0.0222629129472801
0.21075	0.0239108873121233
0.210875	0.0242160677500572
0.211	0.0231784542610819
0.211125	0.0236362249179828
0.21125	0.024277103837644
0.211375	0.0223849851224537
0.2115	0.0217441062027924
0.211625	0.0218356603341726
0.21175	0.0227512016479744
0.211875	0.022568093385214
0.212	0.0218051422903792
0.212125	0.0220798046845197
0.21225	0.0214389257648585
0.212375	0.0216525520714122
0.2125	0.0215915159838254
0.212625	0.0216525520714122
0.21275	0.0216220340276188
0.212875	0.0218356603341726
0.213	0.0219272144655528
0.213125	0.0216830701152056
0.21325	0.0212252994583047
0.213375	0.0211642633707179
0.2135	0.0210421911955444
0.213625	0.0209201190203708
0.21375	0.0217441062027924
0.213875	0.0218356603341726
0.214	0.0209811551079576
0.214125	0.0211642633707179
0.21425	0.0205233844510567
0.214375	0.0209506370641642
0.2145	0.0209201190203708
0.214625	0.0213473716334783
0.21475	0.0209811551079576
0.214875	0.0203707942320897
0.215	0.0202182040131228
0.215125	0.0204318303196765
0.21525	0.0204013122758831
0.215375	0.0207980468451972
0.2155	0.0198825055313954
0.215625	0.0192111085679408
0.21575	0.020706492713817
0.215875	0.0195468070496681
0.216	0.0192721446555276
0.216125	0.0190585183489738
0.21625	0.0192111085679408
0.216375	0.0200961318379492
0.2165	0.0193942168307012
0.216625	0.0193636987869078
0.21675	0.0200961318379492
0.216875	0.0193636987869078
0.217	0.0194857709620813
0.217125	0.0189669642175937
0.21725	0.0187228198672465
0.217375	0.0188448920424201
0.2175	0.0190280003051804
0.217625	0.0185397116044862
0.21775	0.0182650492103456
0.217875	0.0187838559548333
0.218	0.0194857709620813
0.218125	0.0196993972686351
0.21825	0.019851987487602
0.218375	0.0189364461738003
0.2185	0.0186617837796597
0.218625	0.0190890363927672
0.21875	0.0188448920424201
0.218875	0.0189364461738003
0.219	0.0178377965972381
0.219125	0.0196383611810483
0.21925	0.0194857709620813
0.219375	0.0189059281300069
0.2195	0.0195468070496681
0.219625	0.0192721446555276
0.21975	0.0177157244220645
0.219875	0.017593652246891
0.22	0.0175326161593042
0.220125	0.0182040131227588
0.22025	0.0177462424658579
0.220375	0.0168917372396429
0.2205	0.0168001831082628
0.220625	0.0173495078965438
0.22075	0.0183260852979324
0.220875	0.0171663996337835
0.221	0.0173189898527504
0.221125	0.0163118944075685
0.22125	0.0166781109330892
0.221375	0.016586556801709
0.2215	0.0173495078965438
0.221625	0.0172579537651637
0.22175	0.0158541237506676
0.221875	0.0161287861448081
0.222	0.0159151598382544
0.222125	0.0169527733272297
0.22225	0.0160067139696345
0.222375	0.0154879072251469
0.2225	0.0168917372396429
0.222625	0.0159456778820478
0.22275	0.0154573891813535
0.222875	0.0151522087434195
0.223	0.0154879072251469
0.223125	0.0165255207141222
0.22325	0.0161287861448081
0.223375	0.0169222552834363
0.2235	0.0152132448310063
0.223625	0.0151216906996262
0.22375	0.015579461356527
0.223875	0.0149080643930724
0.224	0.0139009689478904
0.224125	0.0142366674296178
0.22425	0.0135347524223697
0.224375	0.0136873426413367
0.2245	0.0151827267872129
0.224625	0.0142061493858244
0.22475	0.0143892576485847
0.224875	0.0139009689478904
0.225	0.0136873426413367
0.225125	0.0139314869916838
0.22525	0.0136263065537499
0.225375	0.0134737163347829
0.2255	0.0135347524223697
0.225625	0.0145113298237583
0.22575	0.0131074998092622
0.225875	0.0121309224078737
0.226	0.0134126802471962
0.226125	0.0128023193713283
0.22625	0.0125276569771878
0.226375	0.0121309224078737
0.2265	0.0127412832837415
0.226625	0.0134737163347829
0.22675	0.0132906080720226
0.226875	0.0135652704661631
0.227	0.0135957885099565
0.227125	0.0134126802471962
0.22725	0.0119172961013199
0.227375	0.0129549095902953
0.2275	0.0136568245975433
0.227625	0.0134737163347829
0.22775	0.0128938735027085
0.227875	0.00975051499198901
0.228	0.00889600976577401
0.228125	0.00856031128404669
0.22825	0.00944533455405508
0.228375	0.00886549172198062
0.2285	0.00776684214541848
0.228625	0.00804150453955901
0.22875	0.00816357671473259
0.228875	0.00816357671473259
0.229	0.0081025406271458
0.229125	0.00849927519645991
0.22925	0.00843823910887312
0.229375	0.00813305867093919
0.2295	0.00843823910887312
0.229625	0.00822461280231937
0.22975	0.00889600976577401
0.229875	0.0059662775616083
0.23	0.00517280842298009
0.230125	0.00660715648126955
0.23025	0.00599679560540169
0.230375	0.0055390249485008
0.2305	0.00645456626230259
0.230625	0.00630197604333562
0.23075	0.00532539864194705
0.230875	0.00584420538643473
0.231	0.00502021820401312
0.231125	0.00505073624780652
0.23125	0.00608834973678187
0.231375	0.00617990386816205
0.2315	0.00572213321126116
0.231625	0.00645456626230259
0.23175	0.00575265125505455
0.231875	0.00498970016021973
0.232	0.00437933928435187
0.232125	0.00352483405813687
0.23225	0.00407415884641794
0.232375	0.00502021820401312
0.2325	0.00440985732814527
0.232625	0.00440985732814527
0.23275	0.0042572671091783
0.232875	0.00437933928435187
0.233	0.00535591668574044
0.233125	0.00428778515297169
0.23325	0.00370794232089723
0.233375	0.00389105058365759
0.2335	0.00431830319676509
0.233625	0.00520332646677348
0.23375	0.00529488059815366
0.233875	0.00538643472953384
0.234	0.00358587014572366
0.234125	0.00218204013122759
0.23425	0.00132753490501259
0.234375	0.00151064316777295
0.2345	0.00239566643778134
0.234625	0.00267032883192187
0.23475	0.0025787747005417
0.234875	0.00187685969329366
0.235	0.0021210040436408
0.235125	0.00294499122606241
0.23525	0.00193789578088045
0.235375	0.00157167925535973
0.2355	0.00111390859845884
0.235625	0.00144960708018616
0.23575	0.00224307621881437
0.235875	0.00157167925535973
0.236	0.000930800335698482
0.236125	-0.000289921416037232
0.23625	-0.000625619897764553
0.236375	-0.00114442664225223
0.2365	0.000289921416037232
0.236625	-0.000747692072938125
0.23675	-0.00102235446707866
0.236875	-0.00111390859845884
0.237	-0.000106813153276875
0.237125	0.000442511635004196
0.23725	-0.00114442664225223
0.237375	-0.000900282291905089
0.2375	-0.00141908903639277
0.237625	-0.00102235446707866
0.23775	7.62951094834821e-05
0.237875	0.000320439459830625
0.238	-4.57770656900893e-05
0.238125	-0.00205996795605402
0.23825	-0.00175478751812009
0.238375	-0.000717174029144732
0.2385	-0.00193789578088045
0.238625	-0.00227359426260777
0.23875	-0.00196841382467384
0.238875	-0.00209048599984741
0.239	-0.00178530556191348
0.239125	-0.00108339055466545
0.23925	-0.000839246204318303
0.239375	-0.00227359426260777
0.2395	-0.00117494468604562
0.239625	-0.00102235446707866
0.23975	-0.00218204013122759
0.239875	-0.00221255817502098
0.24	-0.000717174029144732
0.240125	-0.00245670252536812
0.24025	-0.00489814602883955
0.240375	-0.00370794232089723
0.2405	-0.00386053253986419
0.240625	-0.00416571297779812
0.24075	-0.00370794232089723
0.240875	-0.00349431601434348
0.241	-0.0046845197222858
0.241125	-0.00444037537193866
0.24125	-0.00364690623331044
0.241375	-0.00355535210193027
0.2415	-0.00337224383916991
0.241625	-0.00401312275883116
0.24175	-0.00395208667124437
0.241875	-0.00364690623331044
0.242	-0.00392156862745098
0.242125	-0.00538643472953384
0.24225	-0.00669871061264973
0.242375	-0.00621042191195544
0.2425	-0.00703440909437705
0.242625	-0.00602731364919509
0.24275	-0.00550850690470741
0.242875	-0.00621042191195544
0.243	-0.00636301213092241
0.243125	-0.00630197604333562
0.24325	-0.00660715648126955
0.243375	-0.00688181887541009
0.2435	-0.00679026474402991
0.243625	-0.00669871061264973
0.24375	-0.00688181887541009
0.243875	-0.00688181887541009
0.244	-0.00672922865644312
0.244125	-0.00663767452506294
0.24425	-0.00874341954680705
0.244375	-0.00904859998474098
0.2445	-0.00834668497749294
0.244625	-0.00804150453955901
0.24475	-0.00804150453955901
0.244875	-0.00959792477302205
0.245	-0.00868238345922026
0.245125	-0.00862134737163348
0.24525	-0.00941481651026169
0.245375	-0.00782787823300526
0.2455	-0.00892652780956741
0.245625	-0.00849927519645991
0.24575	-0.00910963607232776
0.245875	-0.00868238345922026
0.246	-0.00871290150301366
0.246125	-0.00923170824750134
0.24625	-0.00971999694819562
0.246375	-0.0115205615320058
0.2465	-0.0102693217364767
0.246625	-0.0107881284809644
0.24675	-0.0110933089188983
0.246875	-0.0101777676050965
0.247	-0.00996414129854276
0.247125	-0.0102388036926833
0.24725	-0.0108491645685512
0.247375	-0.0107881284809644
0.2475	-0.0114900434882124
0.247625	-0.0111848630502785
0.24775	-0.0103608758678569
0.247875	-0.0114900434882124
0.248	-0.0112458991378653
0.248125	-0.0106660563057908
0.24825	-0.0121004043640803
0.248375	-0.013870450904097
0.2485	-0.0135652704661631
0.248625	-0.0136263065537499
0.24875	-0.0128633554589151
0.248875	-0.0133821622034028
0.249	-0.0142061493858244
0.249125	-0.0141145952544442
0.24925	-0.0128023193713283
0.249375	-0.0134431982909895
0.2495	-0.0134431982909895
0.249625	-0.012161440451667
0.24975	-0.0128633554589151
0.249875	-0.0122835126268406
0.25	-0.012466620889601
0.250125	-0.013168535896849
0.25025	-0.0135042343785763
0.250375	-0.0129549095902953
0.2505	-0.013321126115816
0.250625	-0.0139314869916838
0.25075	-0.0137178606851301
0.250875	-0.0124055848020142
0.251	-0.0137788967727169
0.251125	-0.013168535896849
0.25125	-0.0122529945830472
0.251375	-0.0127107652399481
0.2515	-0.0135347524223697
0.251625	-0.0135957885099565
0.25175	-0.0127718013275349
0.251875	-0.0130769817654688
0.252	-0.0120393682764935
0.252125	-0.0135347524223697
0.25225	-0.0137788967727169
0.252375	-0.0135957885099565
0.2525	-0.0138094148165103
0.252625	-0.0139925230792706
0.25275	-0.0139009689478904
0.252875	-0.0139009689478904
0.253	-0.0139620050354772
0.253125	-0.0137483787289235
0.25325	-0.0147554741741054
0.253375	-0.0149691004806592
0.2535	-0.014175631342031
0.253625	-0.0132600900282292
0.25375	-0.0143282215609979
0.253875	-0.0146639200427253
0.254	-0.0146639200427253
0.254125	-0.0143892576485847
0.25425	-0.0136873426413367
0.254375	-0.0144502937361715
0.2545	-0.0142061493858244
0.254625	-0.0145418478675517
0.25475	-0.013870450904097
0.254875	-0.0131380178530556
0.255	-0.0149691004806592
0.255125	-0.0139314869916838
0.25525	-0.013015945677882
0.255375	-0.0137788967727169
0.2555	-0.0135042343785763
0.255625	-0.0139009689478904
0.25575	-0.0136263065537499
0.255875	-0.0139620050354772
0.256	-0.0148165102616922
0.256125	-0.0136873426413367
0.25625	-0.0136568245975433
0.256375	-0.0133821622034028
0.2565	-0.013870450904097
0.256625	-0.0143282215609979
0.25675	-0.0146334019989319
0.256875	-0.0145723659113451
0.257	-0.013168535896849
0.257125	-0.0136263065537499
0.25725	-0.0144197756923781
0.257375	-0.0138094148165103
0.2575	-0.0129549095902953
0.257625	-0.013870450904097
0.25775	-0.0141145952544442
0.257875	-0.0136873426413367
0.258	-0.0132600900282292
0.258125	-0.0135652704661631
0.25825	-0.0139009689478904
0.258375	-0.0143892576485847
0.2585	-0.0139925230792706
0.258625	-0.0135042343785763
0.25875	-0.0142977035172045
0.258875	-0.0133821622034028
0.259	-0.0139009689478904
0.259125	-0.013870450904097
0.25925	-0.0130769817654688
0.259375	-0.013321126115816
0.2595	-0.0141451132982376
0.259625	-0.0135347524223697
0.25975	-0.0134126802471962
0.259875	-0.013321126115816
0.26	-0.0129549095902953
0.260125	-0.0141145952544442
0.26025	-0.0144502937361715
0.260375	-0.014023041123064
0.2605	-0.013870450904097
0.260625	-0.013321126115816
0.26075	-0.0138094148165103
0.260875	-0.0138399328603037
0.261	-0.0127412832837415
0.261125	-0.0126497291523613
0.26125	-0.0129549095902953
0.261375	-0.0130769817654688
0.2615	-0.0141145952544442
0.261625	-0.0133516441596094
0.26175	-0.0127718013275349
0.261875	-0.0141451132982376
0.262	-0.0129854276340887
0.262125	-0.0129549095902953
0.26225	-0.0124055848020142
0.262375	-0.0135347524223697
0.2625	-0.0142977035172045
0.262625	-0.0144808117799649
0.26275	-0.0144197756923781
0.262875	-0.0140840772106508
0.263	-0.0148470283054856
0.263125	-0.0144197756923781
0.26325	-0.0137178606851301
0.263375	-0.0149996185244526
0.2635	-0.0145113298237583
0.263625	-0.0145418478675517
0.26375	-0.0144197756923781
0.263875	-0.0136873426413367
0.264	-0.0139314869916838
0.264125	-0.0135347524223697
0.26425	-0.0153658350499733
0.264375	-0.0140840772106508
0.2645	-0.0146028839551385
0.264625	-0.0148470283054856
0.26475	-0.0142061493858244
0.264875	-0.0149080643930724
0.265	-0.0139009689478904
0.265125	-0.0139620050354772
0.26525	-0.0144502937361715
0.265375	-0.0149080643930724
0.2655	-0.0146639200427253
0.265625	-0.0153658350499733
0.26575	-0.0148165102616922
0.265875	-0.0145113298237583
0.266	-0.0137788967727169
0.266125	-0.0142671854734112
0.26625	-0.0150606546120394
0.266375	-0.0141451132982376
0.2665	-0.0146639200427253
0.266625	-0.0140535591668574
0.26675	-0.0151216906996262
0.266875	-0.0143282215609979
0.267	-0.0144808117799649
0.267125	-0.0146334019989319
0.26725	-0.0142671854734112
0.267375	-0.0141451132982376
0.2675	-0.0142977035172045
0.267625	-0.0134126802471962
0.26775	-0.0130464637216754
0.267875	-0.0138399328603037
0.268	-0.0146028839551385
0.268125	-0.0143282215609979
0.26825	-0.014175631342031
0.268375	-0.0135347524223697
0.2685	-0.0126802471961547
0.268625	-0.0135957885099565
0.26875	-0.0143587396047913
0.268875	-0.0150911726558328
0.269	-0.0141145952544442
0.269125	-0.0139009689478904
0.26925	-0.0139314869916838
0.269375	-0.0136873426413367
0.2695	-0.0139009689478904
0.269625	-0.0131074998092622
0.26975	-0.0142977035172045
0.269875	-0.0137788967727169
0.27	-0.0139925230792706
0.270125	-0.0128023193713283
0.27025	-0.0138094148165103
0.270375	-0.0143892576485847
0.2705	-0.0128328374151217
0.270625	-0.0134431982909895
0.27075	-0.0147554741741054
0.270875	-0.0142977035172045
0.271	-0.0130769817654688
0.271125	-0.014175631342031
0.27125	-0.0132906080720226
0.271375	-0.0141145952544442
0.2715	-0.014175631342031
0.271625	-0.0128023193713283
0.27175	-0.0134126802471962
0.271875	-0.0129854276340887
0.272	-0.0136263065537499
0.272125	-0.0144197756923781
0.27225	-0.0138399328603037
0.272375	-0.0128328374151217
0.2725	-0.0134431982909895
0.272625	-0.0135652704661631
0.27275	-0.0137483787289235
0.272875	-0.0130769817654688
0.273	-0.0139925230792706
0.273125	-0.013870450904097
0.27325	-0.0133516441596094
0.273375	-0.0149385824368658
0.2735	-0.0141451132982376
0.273625	-0.0144808117799649
0.27375	-0.0139620050354772
0.273875	-0.0145418478675517
0.274	-0.0134737163347829
0.274125	-0.0128633554589151
0.27425	-0.0135042343785763
0.274375	-0.0133516441596094
0.2745	-0.013870450904097
0.274625	-0.0129854276340887
0.27475	-0.0136873426413367
0.274875	-0.0127412832837415
0.275	-0.0124055848020142
0.275125	-0.0128633554589151
0.27525	-0.0139314869916838
0.275375	-0.014175631342031
0.2755	-0.0133516441596094
0.275625	-0.0137483787289235
0.27575	-0.0145113298237583
0.275875	-0.0129854276340887
0.276	-0.0125581750209812
0.276125	-0.0135042343785763
0.27625	-0.0139314869916838
0.276375	-0.0126192111085679
0.2765	-0.0128938735027085
0.276625	-0.0136873426413367
0.27675	-0.0132600900282292
0.276875	-0.0138094148165103
0.277	-0.0136263065537499
0.277125	-0.0133821622034028
0.27725	-0.0129549095902953
0.277375	-0.0136263065537499
0.2775	-0.0146639200427253
0.277625	-0.0142671854734112
0.27775	-0.0131990539406424
0.277875	-0.0142671854734112
0.278	-0.0141451132982376
0.278125	-0.0132295719844358
0.27825	-0.0137483787289235
0.278375	-0.0127412832837415
0.2785	-0.0132600900282292
0.278625	-0.013870450904097
0.27875	-0.0131074998092622
0.278875	-0.0136263065537499
0.279	-0.0139620050354772
0.279125	-0.0135652704661631
0.27925	-0.0134737163347829
0.279375	-0.0135347524223697
0.2795	-0.013321126115816
0.279625	-0.0125581750209812
0.27975	-0.0130769817654688
0.279875	-0.0133516441596094
0.28	-0.0128938735027085
0.280125	-0.013168535896849
0.28025	-0.0125581750209812
0.280375	-0.0129854276340887
0.2805	-0.0132600900282292
0.280625	-0.0118867780575265
0.28075	-0.0114900434882124
0.280875	-0.0127412832837415
0.281	-0.0124971389333944
0.281125	-0.0122529945830472
0.28125	-0.0132906080720226
0.281375	-0.0128023193713283
0.2815	-0.0127718013275349
0.281625	-0.0131074998092622
0.28175	-0.0123750667582208
0.281875	-0.0133516441596094
0.282	-0.0131074998092622
0.282125	-0.0129243915465019
0.28225	-0.0134431982909895
0.282375	-0.0130464637216754
0.2825	-0.0133516441596094
0.282625	-0.0129549095902953
0.28275	-0.0134126802471962
0.282875	-0.0136263065537499
0.283	-0.0120393682764935
0.283125	-0.0130464637216754
0.28325	-0.0124971389333944
0.283375	-0.0128023193713283
0.2835	-0.0127107652399481
0.283625	-0.0125581750209812
0.28375	-0.0128938735027085
0.283875	-0.0131990539406424
0.284	-0.013168535896849
0.284125	-0.011612115663386
0.28425	-0.0123445487144274
0.284375	-0.0131990539406424
0.2845	-0.0120698863202869
0.284625	-0.0108796826123445
0.28475	-0.0119783321889067
0.284875	-0.0119783321889067
0.285	-0.0118867780575265
0.285125	-0.0111238269626917
0.28525	-0.0124361028458076
0.285375	-0.0119478141451133
0.2855	-0.0124361028458076
0.285625	-0.0118867780575265
0.28575	-0.0109102006561379
0.285875	-0.0120088502327001
0.286	-0.0110017547875181
0.286125	-0.0117952239261463
0.28625	-0.0114290074006256
0.286375	-0.0114900434882124
0.2865	-0.0124971389333944
0.286625	-0.0130769817654688
0.28675	-0.0130464637216754
0.286875	-0.0121919584954604
0.287	-0.012161440451667
0.287125	-0.012466620889601
0.28725	-0.0126802471961547
0.287375	-0.0115510795757992
0.2875	-0.0120698863202869
0.287625	-0.0123750667582208
0.28775	-0.0124971389333944
0.287875	-0.0122835126268406
0.288	-0.0121919584954604
0.288125	-0.0121309224078737
0.28825	-0.0109712367437247
0.288375	-0.0118867780575265
0.2885	-0.0122224765392538
0.288625	-0.0102693217364767
0.28875	-0.0112458991378653
0.288875	-0.0116426337071794
0.289	-0.0111543450064851
0.289125	-0.0119783321889067
0.28925	-0.0111543450064851
0.289375	-0.0108796826123445
0.2895	-0.010605020218204
0.289625	-0.0109712367437247
0.28975	-0.0112764171816587
0.289875	-0.0119478141451133
0.29	-0.012161440451667
0.290125	-0.0125886930647745
0.29025	-0.0117036697947662
0.290375	-0.0115510795757992
0.2905	-0.0119172961013199
0.290625	-0.0100556954299229
0.29075	-0.010757610437171
0.290875	-0.0110933089188983
0.291	-0.0121919584954604
0.291125	-0.0123750667582208
0.29125	-0.0111543450064851
0.291375	-0.0117036697947662
0.2915	-0.0122224765392538
0.291625	-0.0110017547875181
0.29175	-0.0116731517509728
0.291875	-0.0113984893568322
0.292	-0.011459525444419
0.292125	-0.0112153810940719
0.29225	-0.0114290074006256
0.292375	-0.0115510795757992
0.2925	-0.0120698863202869
0.292625	-0.011459525444419
0.29275	-0.0115205615320058
0.292875	-0.0114900434882124
0.293	-0.011459525444419
0.293125	-0.0118867780575265
0.29325	-0.010757610437171
0.293375	-0.0118562600137331
0.2935	-0.0108491645685512
0.293625	-0.0117036697947662
0.29375	-0.0110322728313115
0.293875	-0.0104219119554437
0.294	-0.0110322728313115
0.294125	-0.00990310521095598
0.29425	-0.0117036697947662
0.294375	-0.010757610437171
0.2945	-0.0113374532692454
0.294625	-0.0114290074006256
0.29475	-0.0120088502327001
0.294875	-0.0114290074006256
0.295	-0.0103303578240635
0.295125	-0.0107881284809644
0.29525	-0.011306935225452
0.295375	-0.0108491645685512
0.2955	-0.0102388036926833
0.295625	-0.011612115663386
0.29575	-0.0112764171816587
0.295875	-0.0115205615320058
0.296	-0.0116731517509728
0.296125	-0.0118867780575265
0.29625	-0.011306935225452
0.296375	-0.0110933089188983
0.2965	-0.0112153810940719
0.296625	-0.0111238269626917
0.29675	-0.0111848630502785
0.296875	-0.0103608758678569
0.297	-0.0108186465247578
0.297125	-0.0113679713130388
0.29725	-0.0115205615320058
0.297375	-0.0117341878385595
0.2975	-0.0108186465247578
0.297625	-0.0106355382619974
0.29775	-0.0114290074006256
0.297875	-0.0100251773861295
0.298	-0.0105745021744106
0.298125	-0.0106965743495842
0.29825	-0.0109712367437247
0.298375	-0.0114290074006256
0.2985	-0.0106355382619974
0.298625	-0.0111543450064851
0.29875	-0.0118257419699397
0.298875	-0.0118867780575265
0.299	-0.0108186465247578
0.299125	-0.0115205615320058
0.29925	-0.011459525444419
0.299375	-0.0109407186999313
0.2995	-0.0106355382619974
0.299625	-0.0108796826123445
0.29975	-0.0102693217364767
0.299875	-0.0100556954299229
0.3	-0.00993362325474937
0.300125	-0.010452429999237
0.30025	-0.0110322728313115
0.300375	-0.0113374532692454
0.3005	-0.0108491645685512
0.300625	-0.00987258716716258
0.30075	-0.00996414129854276
0.300875	-0.00984206912336919
0.301	-0.0101472495613031
0.301125	-0.00984206912336919
0.30125	-0.0109102006561379
0.301375	-0.0109712367437247
0.3015	-0.0101777676050965
0.301625	-0.0101472495613031
0.30175	-0.00990310521095598
0.301875	-0.00999465934233616
0.302	-0.0104829480430304
0.302125	-0.0101167315175097
0.30225	-0.0106660563057908
0.302375	-0.0113374532692454
0.3025	-0.00920119020370794
0.302625	-0.0100251773861295
0.30275	-0.0111543450064851
0.302875	-0.00968947890440223
0.303	-0.00929274433508812
0.303125	-0.00953688868543526
0.30325	-0.00965896086060884
0.303375	-0.00971999694819562
0.3035	-0.00892652780956741
0.303625	-0.0100556954299229
0.30375	-0.0109407186999313
0.303875	-0.00904859998474098
0.304	-0.0102388036926833
0.304125	-0.0100556954299229
0.30425	-0.010452429999237
0.304375	-0.0100251773861295
0.3045	-0.0100251773861295
0.304625	-0.00984206912336919
0.30475	-0.00978103303578241
0.304875	-0.0100556954299229
0.305	-0.00975051499198901
0.305125	-0.010452429999237
0.30525	-0.0106355382619974
0.305375	-0.0101472495613031
0.3055	-0.00904859998474098
0.305625	-0.00904859998474098
0.30575	-0.00941481651026169
0.305875	-0.0107881284809644
0.306	-0.0105745021744106
0.306125	-0.0102998397802701
0.30625	-0.0107270923933776
0.306375	-0.0104829480430304
0.3065	-0.00978103303578241
0.306625	-0.00965896086060884
0.30675	-0.010452429999237
0.306875	-0.00920119020370794
0.307	-0.0098115510795758
0.307125	-0.010452429999237
0.30725	-0.0105134660868238
0.307375	-0.0103608758678569
0.3075	-0.00999465934233616
0.307625	-0.00990310521095598
0.30775	-0.0093842984664683
0.307875	-0.0085297932402533
0.308	-0.00874341954680705
0.308125	-0.00965896086060884
0.30825	-0.0089570458533608
0.308375	-0.00953688868543526
0.3085	-0.00926222629129473
0.308625	-0.00978103303578241
0.30875	-0.00935378042267491
0.308875	-0.00901808194094758
0.309	-0.00965896086060884
0.309125	-0.00932326237888151
0.30925	-0.00840772106507973
0.309375	-0.00901808194094758
0.3095	-0.0100556954299229
0.309625	-0.00944533455405508
0.30975	-0.00901808194094758
0.309875	-0.0102082856488899
0.31	-0.00978103303578241
0.310125	-0.00868238345922026
0.31025	-0.00877393759060044
0.310375	-0.00962844281681544
0.3105	-0.0102998397802701
0.310625	-0.00917067215991455
0.31075	-0.00941481651026169
0.310875	-0.00825513084611276
0.311	-0.00877393759060044
0.311125	-0.00910963607232776
0.31125	-0.00886549172198062
0.311375	-0.00950637064164187
0.3115	-0.0085297932402533
0.311625	-0.00929274433508812
0.31175	-0.00828564888990616
0.311875	-0.00904859998474098
0.312	-0.0102082856488899
0.312125	-0.00987258716716258
0.31225	-0.00968947890440223
0.312375	-0.00923170824750134
0.3125	-0.00965896086060884
0.312625	-0.00990310521095598
0.31275	-0.00956740672922866
0.312875	-0.00822461280231937
0.313	-0.00849927519645991
0.313125	-0.00971999694819562
0.31325	-0.00990310521095598
0.313375	-0.00926222629129473
0.3135	-0.00788891432059205
0.313625	-0.00834668497749294
0.31375	-0.00889600976577401
0.313875	-0.00877393759060044
0.314	-0.00822461280231937
0.314125	-0.00907911802853437
0.31425	-0.00907911802853437
0.314375	-0.0093842984664683
0.3145	-0.00987258716716258
0.314625	-0.00926222629129473
0.31475	-0.00950637064164187
0.314875	-0.00849927519645991
0.315	-0.0093842984664683
0.315125	-0.00843823910887312
0.31525	-0.00929274433508812
0.315375	-0.00999465934233616
0.3155	-0.00883497367818723
0.315625	-0.00926222629129473
0.31575	-0.0101777676050965
0.315875	-0.00926222629129473
0.316	-0.00901808194094758
0.316125	-0.00932326237888151
0.31625	-0.00862134737163348
0.316375	-0.00862134737163348
0.3165	-0.00862134737163348
0.316625	-0.00971999694819562
0.31675	-0.00901808194094758
0.316875	-0.00788891432059205
0.317	-0.00825513084611276
0.317125	-0.00877393759060044
0.31725	-0.0089570458533608
0.317375	-0.00920119020370794
0.3175	-0.00868238345922026
0.317625	-0.00898756389715419
0.31775	-0.00932326237888151
0.317875	-0.00825513084611276
0.318	-0.00825513084611276
0.318125	-0.00819409475852598
0.31825	-0.00770580605783169
0.318375	-0.00807202258335241
0.3185	-0.00733958953231098
0.318625	-0.00862134737163348
0.31875	-0.00959792477302205
0.318875	-0.00926222629129473
0.319	-0.00859082932784009
0.319125	-0.00965896086060884
0.31925	-0.00849927519645991
0.319375	-0.0089570458533608
0.3195	-0.00907911802853437
0.319625	-0.00947585259784848
0.31975	-0.00975051499198901
0.319875	-0.00825513084611276
0.32	-0.00941481651026169
0.320125	-0.00822461280231937
0.32025	-0.00773632410162509
0.320375	-0.0085297932402533
0.3205	-0.00910963607232776
0.320625	-0.00868238345922026
0.32075	-0.00886549172198062
0.320875	-0.00883497367818723
0.321	-0.00883497367818723
0.321125	-0.00788891432059205
0.32125	-0.00871290150301366
0.321375	-0.00950637064164187
0.3215	-0.00920119020370794
0.321625	-0.00926222629129473
0.32175	-0.00840772106507973
0.321875	-0.00859082932784009
0.322	-0.00740062561989776
0.322125	-0.0085297932402533
0.32225	-0.00840772106507973
0.322375	-0.00801098649576562
0.3225	-0.00904859998474098
0.322625	-0.0076752880140383
0.32275	-0.00813305867093919
0.322875	-0.00801098649576562
0.323	-0.00819409475852598
0.323125	-0.00761425192645151
0.32325	-0.0085297932402533
0.323375	-0.00804150453955901
0.3235	-0.00843823910887312
0.323625	-0.00828564888990616
0.32375	-0.00758373388265812
0.323875	-0.0081025406271458
0.324	-0.00883497367818723
0.324125	-0.00914015411612116
0.32425	-0.00758373388265812
0.324375	-0.00691233691920348
0.3245	-0.00822461280231937
0.324625	-0.00807202258335241
0.32475	-0.00791943236438544
0.324875	-0.00834668497749294
0.325	-0.00743114366369116
0.325125	-0.0085297932402533
0.32525	-0.00770580605783169
0.325375	-0.00804150453955901
0.3255	-0.00712596322575723
0.325625	-0.00746166170748455
0.32575	-0.00840772106507973
0.325875	-0.00798046845197223
0.326	-0.00788891432059205
0.326125	-0.00819409475852598
0.32625	-0.00856031128404669
0.326375	-0.00740062561989776
0.3265	-0.00740062561989776
0.326625	-0.00831616693369955
0.32675	-0.0076752880140383
0.326875	-0.00770580605783169
0.327	-0.00862134737163348
0.327125	-0.00859082932784009
0.32725	-0.00791943236438544
0.327375	-0.00859082932784009
0.3275	-0.00804150453955901
0.327625	-0.0085297932402533
0.32775	-0.00871290150301366
0.327875	-0.00801098649576562
0.328	-0.00834668497749294
0.328125	-0.00740062561989776
0.32825	-0.00773632410162509
0.328375	-0.00761425192645151
0.3285	-0.00694285496299687
0.328625	-0.00700389105058366
0.32875	-0.00856031128404669
0.328875	-0.00914015411612116
0.329	-0.00859082932784009
0.329125	-0.00825513084611276
0.32925	-0.00773632410162509
0.329375	-0.00807202258335241
0.3295	-0.00807202258335241
0.329625	-0.00709544518196384
0.32975	-0.00721751735713741
0.329875	-0.00837720302128634
0.33	-0.00871290150301366
0.330125	-0.00758373388265812
0.33025	-0.00679026474402991
0.330375	-0.00718699931334402
0.3305	-0.00740062561989776
0.330625	-0.00804150453955901
0.33075	-0.00801098649576562
0.330875	-0.00715648126955062
0.331	-0.00685130083161669
0.331125	-0.0081025406271458
0.33125	-0.00779736018921187
0.331375	-0.00773632410162509
0.3315	-0.00819409475852598
0.331625	-0.00831616693369955
0.33175	-0.00889600976577401
0.331875	-0.00840772106507973
0.332	-0.00733958953231098
0.332125	-0.00685130083161669
0.33225	-0.00749217975127794
0.332375	-0.00721751735713741
0.3325	-0.00776684214541848
0.332625	-0.00843823910887312
0.33275	-0.00779736018921187
0.332875	-0.00843823910887312
0.333	-0.00831616693369955
0.333125	-0.00733958953231098
0.33325	-0.00740062561989776
0.333375	-0.00782787823300526
0.3335	-0.00804150453955901
0.333625	-0.00871290150301366
0.33375	-0.00849927519645991
0.333875	-0.00837720302128634
0.334	-0.00840772106507973
0.334125	-0.00843823910887312
0.33425	-0.00794995040817884
0.334375	-0.00901808194094758
0.3345	-0.0127718013275349
0.334625	-0.0121309224078737
0.33475	-0.0119478141451133
0.334875	-0.0132906080720226
0.335	-0.013015945677882
0.335125	-0.0133516441596094
0.33525	-0.0137483787289235
0.335375	-0.0132906080720226
0.3355	-0.0132906080720226
0.335625	-0.0129243915465019
0.33575	-0.0118562600137331
0.335875	-0.0120698863202869
0.336	-0.0129854276340887
0.336125	-0.0125886930647745
0.33625	-0.012161440451667
0.336375	-0.0119172961013199
0.3365	-0.0161593041886015
0.336625	-0.0172274357213703
0.33675	-0.0167086289768826
0.336875	-0.0175326161593042
0.337	-0.0170138094148165
0.337125	-0.0175326161593042
0.33725	-0.0166170748455024
0.337375	-0.0167086289768826
0.3375	-0.0171358815899901
0.337625	-0.0173495078965438
0.33775	-0.0166781109330892
0.337875	-0.0170138094148165
0.338	-0.0182345311665522
0.338125	-0.0172579537651637
0.33825	-0.0175631342030976
0.338375	-0.015884641794461
0.3385	-0.0186617837796597
0.338625	-0.0222018768596933
0.33875	-0.0212558175020981
0.338875	-0.0222323949034867
0.339	-0.0218966964217594
0.339125	-0.0210421911955444
0.33925	-0.0211337453269245
0.339375	-0.0212863355458915
0.3395	-0.020157167925536
0.339625	-0.0212558175020981
0.33975	-0.0209811551079576
0.339875	-0.0206454566262303
0.34	-0.0219272144655528
0.340125	-0.0204928664072633
0.34025	-0.020706492713817
0.340375	-0.0215915159838254
0.3405	-0.021011673151751
0.340625	-0.0255283436331731
0.34075	-0.0263523308155947
0.340875	-0.0253452353704128
0.341	-0.0268711375600824
0.341125	-0.0264438849469749
0.34125	-0.0265354390783551
0.341375	-0.0257114518959335
0.3415	-0.0255893797207599
0.341625	-0.0247348744945449
0.34175	-0.0260471503776608
0.341875	-0.0262302586404211
0.342	-0.0260471503776608
0.342125	-0.0251926451514458
0.34225	-0.0259250782024872
0.342375	-0.023575188830396
0.3425	-0.0274204623483635
0.342625	-0.0164034485389487
0.34275	-0.00532539864194705
0.342875	-0.00837720302128634
0.343	-0.00679026474402991
0.343125	-0.00865186541542687
0.34325	-0.0076752880140383
0.343375	-0.00703440909437705
0.3435	-0.00776684214541848
0.343625	-0.00770580605783169
0.34375	-0.00700389105058366
0.343875	-0.00794995040817884
0.344	-0.00697337300679027
0.344125	-0.00755321583886473
0.34425	-0.00730907148851759
0.344375	-0.00611886778057527
0.3445	-0.00733958953231098
0.344625	-0.00547798886091402
0.34475	0.00602731364919509
0.344875	0.0081025406271458
0.345	0.00645456626230259
0.345125	0.00621042191195544
0.34525	0.00761425192645151
0.345375	0.0072480354009308
0.3455	0.00712596322575723
0.345625	0.00752269779507134
0.34575	0.0059662775616083
0.345875	0.00688181887541009
0.346	0.00712596322575723
0.346125	0.00636301213092241
0.34625	0.00749217975127794
0.346375	0.00715648126955062
0.3465	0.00694285496299687
0.346625	0.00544747081712062
0.34675	0.015884641794461
0.346875	0.0238193331807431
0.347	0.0222629129472801
0.347125	0.0222018768596933
0.34725	0.0225070572976272
0.347375	0.0233615625238422
0.3475	0.0215915159838254
0.347625	0.0220492866407263
0.34775	0.0222629129472801
0.347875	0.0223544670786603
0.348	0.0224460212100404
0.348125	0.022415503166247
0.34825	0.0235446707866026
0.348375	0.0228732738231479
0.3485	0.0226596475165942
0.348625	0.0213778896772717
0.34875	0.0254673075455863
0.348875	0.0378576333257038
0.349	0.0368200198367285
0.349125	0.0366979476615549
0.34925	0.0364538033112078
0.349375	0.0354772259098192
0.3495	0.0359044785229267
0.349625	0.036240177004654
0.34975	0.0371862363622492
0.349875	0.0359044785229267
0.35	0.0366979476615549
0.350125	0.0357213702601663
0.35025	0.0353246356908522
0.350375	0.0358129243915465
0.3505	0.0353551537346456
0.350625	0.0365148393987945
0.35075	0.0364843213550011
0.350875	0.0489967193102922
0.351	0.0530251010910201
0.351125	0.0504310673685817
0.35125	0.0512550545510033
0.351375	0.050614175631342
0.3515	0.0516823071641108
0.351625	0.050766765850309
0.35175	0.0509498741130694
0.351875	0.0509803921568627
0.352	0.0506446936751354
0.352125	0.0507057297627222
0.35225	0.0505226214999619
0.352375	0.0511024643320363
0.3525	0.0496375982299535
0.352625	0.0511940184634165
0.35275	0.0498512245365072
0.352875	0.0559853513389792
0.353	0.0658426794842451
0.353125	0.0643778133821622
0.35325	0.0652628366521706
0.353375	0.0646829938200961
0.3535	0.0634927901121538
0.353625	0.0648355840390631
0.35375	0.0648661020828565
0.353875	0.0645609216449226
0.354	0.0652628366521706
0.354125	0.0656595712214847
0.35425	0.0649271381704433
0.354375	0.0650492103456169
0.3545	0.0638895246814679
0.354625	0.0641947051194018
0.35475	0.0634622720683604
0.354875	0.0654764629587243
0.355	0.0790264744029908
0.355125	0.0791180285343709
0.35525	0.0782940413519493
0.355375	0.0786297398336767
0.3555	0.078110933089189
0.355625	0.0793621728847181
0.35575	0.0785381857022965
0.355875	0.0787518120088502
0.356	0.0786297398336767
0.356125	0.0786602578774701
0.35625	0.0788433661402304
0.356375	0.078110933089189
0.3565	0.0776531624322881
0.356625	0.077103837644007
0.35675	0.0781719691767758
0.356875	0.0759746700236515
0.357	0.0857709620813306
0.357125	0.0933699549858854
0.35725	0.0920576791027695
0.357375	0.0929121843289845
0.3575	0.091630426489662
0.357625	0.091783016708629
0.35775	0.0916914625772488
0.357875	0.0912336919203479
0.358	0.09062333104448
0.358125	0.0911726558327611
0.35825	0.0905622949568933
0.358375	0.0901655603875792
0.3585	0.0914168001831083
0.358625	0.09062333104448
0.35875	0.091630426489662
0.358875	0.0901655603875792
0.359	0.09404135194934
0.359125	0.106157015335317
0.35925	0.105363546196689
0.359375	0.105149919890135
0.3595	0.103929198138399
0.359625	0.104692149233234
0.35975	0.105699244678416
0.359875	0.105333028152895
0.36	0.104570077058061
0.360125	0.104234378576333
0.36025	0.103807125963226
0.360375	0.102830548561837
0.3605	0.104264896620127
0.360625	0.104722667277028
0.36075	0.104142824444953
0.360875	0.104417486839094
0.361	0.102830548561837
0.361125	0.114579995422293
0.36125	0.119005111772335
0.361375	0.116502632181277
0.3615	0.117326619363699
0.361625	0.117723353933013
0.36175	0.117235065232319
0.361875	0.116960402838178
0.362	0.117906462195773
0.362125	0.117143511100938
0.36225	0.117082475013352
0.362375	0.11815060654612
0.3625	0.117051956969558
0.362625	0.116289005874723
0.36275	0.116716258487831
0.362875	0.117662317845426
0.363	0.115098802166781
0.363125	0.120775158312352
0.36325	0.132219424734874
0.363375	0.131242847333486
0.3635	0.131242847333486
0.363625	0.130907148851759
0.36375	0.130663004501411
0.363875	0.130540932326238
0.364	0.12993057145037
0.364125	0.129686427100023
0.36425	0.128984512092775
0.364375	0.129076066224155
0.3645	0.129777981231403
0.364625	0.128496223392081
0.36475	0.129381246662089
0.364875	0.128252079041733
0.365	0.12822156099794
0.365125	0.129411764705882
0.36525	0.142046234836347
0.365375	0.145281147478447
0.3655	0.144029907682918
0.365625	0.14512855725948
0.36575	0.142534523537041
0.365875	0.142748149843595
0.366	0.142412451361868
0.366125	0.142900740062562
0.36625	0.143175402456703
0.366375	0.141863126573587
0.3665	0.142717631799802
0.366625	0.14207675288014
0.36675	0.141496910048066
0.366875	0.140825513084611
0.367	0.141863126573587
0.367125	0.14018463416495
0.36725	0.1487296864271
0.367375	0.156298161287861
0.3675	0.153734645609216
0.367625	0.1556572823682
0.36775	0.154253452353704
0.367875	0.154070344090944
0.368	0.154345006485084
0.368125	0.154009308003357
0.36825	0.153215838864729
0.368375	0.153887235828183
0.3685	0.15376516365301
0.368625	0.152422369726101
0.36875	0.153734645609216
0.368875	0.152178225375753
0.369	0.15223926146334
0.369125	0.15062180514229
0.36925	0.154802777141985
0.369375	0.167895017929351
0.3695	0.166887922484169
0.369625	0.167406729228656
0.36975	0.166033417257954
0.369875	0.165941863126574
0.37	0.166033417257954
0.370125	0.166430151827268
0.37025	0.1658197909514
0.370375	0.164354924849317
0.3705	0.164843213550011
0.370625	0.164385442893111
0.37075	0.165178912031739
0.370875	0.164446478980697
0.371	0.164934767681392
0.371125	0.164812695506218
0.37125	0.162615396353094
0.371375	0.174090180819409
0.3715	0.180102235446708
0.371625	0.178240634775311
0.37175	0.179369802395666
0.371875	0.178149080643931
0.372	0.177355611505303
0.372125	0.175951781490806
0.37225	0.176775768673228
0.372375	0.17625696192874
0.3725	0.175555046921492
0.372625	0.175951781490806
0.37275	0.174944686045624
0.372875	0.176409552147707
0.373	0.174120698863203
0.373125	0.175310902571145
0.37325	0.172899977111467
0.373375	0.179766536964981
0.3735	0.191973754482338
0.373625	0.190630960555428
0.37375	0.190264744029908
0.373875	0.189349202716106
0.374	0.189257648584726
0.374125	0.188464179446098
0.37425	0.188769359884031
0.374375	0.188067444876783
0.3745	0.187548638132296
0.374625	0.188525215533684
0.37475	0.186694132906081
0.374875	0.186816205081254
0.375	0.18812848096437
0.375125	0.186694132906081
0.37525	0.187151903562982
0.375375	0.186816205081254
0.3755	0.197863736934462
0.375625	0.201342793926909
0.37575	0.19990844586862
0.375875	0.199481193255512
0.376	0.198779278248264
0.376125	0.198748760204471
0.37625	0.198321507591363
0.376375	0.198718242160677
0.3765	0.198138399328603
0.376625	0.198840314335851
0.37675	0.19847409781033
0.376875	0.197955291065843
0.377	0.197894254978256
0.377125	0.195727473868925
0.37725	0.196643015182727
0.377375	0.193957427328908
0.3775	0.202410925459678
0.377625	0.211627374685283
0.37775	0.209552147707332
0.377875	0.209948882276646
0.378	0.20863660639353
0.378125	0.20854505226215
0.37825	0.208209353780423
0.378375	0.208300907911803
0.3785	0.207843137254902
0.378625	0.207507438773175
0.37875	0.206439307240406
0.378875	0.206195162890059
0.379	0.2069275959411
0.379125	0.205249103532464
0.37925	0.205828946364538
0.379375	0.204242008087282
0.3795	0.207751583123522
0.379625	0.220874341954681
0.37975	0.219897764553292
0.379875	0.220630197604334
0.38	0.220904859998474
0.380125	0.219104295414664
0.38025	0.219195849546044
0.380375	0.219409475852598
0.3805	0.218280308232242
0.380625	0.217730983443961
0.38075	0.218738078889143
0.380875	0.218249790188449
0.381	0.218005645838102
0.381125	0.21718165865568
0.38125	0.216845960173953
0.381375	0.216510261692226
0.3815	0.218005645838102
0.381625	0.204425116350042
0.38175	0.197314412146181
0.381875	0.199725337605859
0.382	0.198901350423438
0.382125	0.199114976729992
0.38225	0.197497520408942
0.382375	0.196826123445487
0.3825	0.197497520408942
0.382625	0.19819943541619
0.38275	0.197558556496529
0.382875	0.195666437781338
0.383	0.195696955825132
0.383125	0.19468986037995
0.38325	0.195483329518578
0.383375	0.193987945372702
0.3835	0.195849546044099
0.383625	0.189288166628519
0.38375	0.176379034103914
0.383875	0.178332188906691
0.384	0.176989394979782
0.384125	0.177630273899443
0.38425	0.175768673228046
0.384375	0.175951781490806
0.3845	0.176348516060121
0.384625	0.175677119096666
0.38475	0.175280384527352
0.384875	0.174975204089418
0.385	0.174425879301137
0.385125	0.174578469520104
0.38525	0.175280384527352
0.385375	0.173754482337682
0.3855	0.173479819943542
0.385625	0.173144121461814
0.38575	0.159411001754788
0.385875	0.155046921492332
0.386	0.15547417410544
0.386125	0.154924849317159
0.38625	0.155779354543374
0.386375	0.155443656061646
0.3865	0.156328679331655
0.386625	0.154650186923018
0.38675	0.154009308003357
0.386875	0.153795681696803
0.387	0.154375524528878
0.387125	0.15394827191577
0.38725	0.152513923857481
0.387375	0.154345006485084
0.3875	0.151537346456092
0.387625	0.154070344090944
0.38775	0.144426642252232
0.387875	0.133379110399023
0.388	0.136614023041123
0.388125	0.134752422369726
0.38825	0.135301747158007
0.388375	0.135332265201801
0.3885	0.134355687800412
0.388625	0.134203097581445
0.38875	0.134416723887999
0.388875	0.135088120851453
0.389	0.13325703822385
0.389125	0.134111543450065
0.38925	0.134325169756619
0.389375	0.133562218661784
0.3895	0.132677195391775
0.389625	0.134081025406271
0.38975	0.131212329289693
0.389875	0.11635004196231
0.39	0.115190356298161
0.390125	0.116044861524376
0.39025	0.115129320210574
0.390375	0.115556572823682
0.3905	0.114763103685054
0.390625	0.114976729991608
0.39075	0.114396887159533
0.390875	0.113542381933318
0.391	0.113511863889525
0.391125	0.11302357518883
0.39125	0.113389791714351
0.391375	0.113267719539178
0.3915	0.113237201495384
0.391625	0.112169069962615
0.39175	0.113237201495384
0.391875	0.101213092240787
0.392	0.0944686045624475
0.392125	0.0962996871900511
0.39225	0.094895857175555
0.392375	0.0953841458762493
0.3925	0.0958113984893568
0.392625	0.0958419165331502
0.39275	0.0946517128252079
0.392875	0.0946517128252079
0.393	0.0951400015259022
0.393125	0.0952620737010758
0.39325	0.0953231097886625
0.393375	0.0948043030441749
0.3935	0.0937361715114061
0.393625	0.0929732204165713
0.39375	0.0954451819638361
0.393875	0.0877851529716945
0.394	0.0753337911039902
0.394125	0.0770122835126268
0.39425	0.0767071030746929
0.394375	0.0767071030746929
0.3945	0.076401922636759
0.394625	0.0750286106660563
0.39475	0.0755779354543374
0.394875	0.0759136339360647
0.395	0.076401922636759
0.395125	0.0752422369726101
0.39525	0.0750591287098497
0.395375	0.0754863813229572
0.3955	0.074540321965362
0.395625	0.0746318760967422
0.39575	0.0734111543450065
0.395875	0.0738994430457008
0.396	0.0597085526817731
0.396125	0.0562905317769131
0.39625	0.0572976272220951
0.396375	0.0561684596017395
0.3965	0.0566872663462272
0.396625	0.0566262302586404
0.39675	0.0571145189593347
0.396875	0.0564126039520867
0.397	0.0565041580834669
0.397125	0.0574807354848554
0.39725	0.056900892652781
0.397375	0.0562905317769131
0.3975	0.0559243152513924
0.397625	0.0559243152513924
0.39775	0.0554055085069047
0.397875	0.0574196993972686
0.398	0.0478675516899367
0.398125	0.0387426565957122
0.39825	0.040360112916762
0.398375	0.0397497520408942
0.3985	0.0401770046540017
0.398625	0.0387731746395056
0.39875	0.0402685587853819
0.398875	0.0392004272526131
0.399	0.0391699092088197
0.399125	0.0386816205081254
0.39925	0.0392614633401999
0.399375	0.039505607690547
0.3995	0.0382543678950179
0.399625	0.038651102464332
0.39975	0.0380102235446708
0.399875	0.0392614633401999
0.4	0.0360265506981002
0.400125	0.0222323949034867
0.40025	0.020706492713817
0.400375	0.0216525520714122
0.4005	0.0230258640421149
0.400625	0.0220492866407263
0.40075	0.0222629129472801
0.400875	0.0232394903486687
0.401	0.0230258640421149
0.401125	0.0228732738231479
0.40125	0.0220492866407263
0.401375	0.021866178377966
0.4015	0.0223544670786603
0.401625	0.0216525520714122
0.40175	0.0223544670786603
0.401875	0.0212558175020981
0.402	0.0222323949034867
0.402125	0.0105745021744106
0.40225	0.00312809948882277
0.402375	0.00532539864194705
0.4025	0.00486762798504616
0.402625	0.00560006103608759
0.40275	0.00465400167849241
0.402875	0.00529488059815366
0.403	0.00453192950331884
0.403125	0.00505073624780652
0.40325	0.00514229037918669
0.403375	0.0055390249485008
0.4035	0.00550850690470741
0.403625	0.00505073624780652
0.40375	0.00575265125505455
0.403875	0.00419623102159152
0.404	0.00526436255436027
0.404125	-0.00175478751812009
0.40425	-0.0137483787289235
0.404375	-0.0128328374151217
0.4045	-0.0131990539406424
0.404625	-0.0122529945830472
0.40475	-0.0126802471961547
0.404875	-0.0132906080720226
0.405	-0.0121919584954604
0.405125	-0.0117341878385595
0.40525	-0.0122529945830472
0.405375	-0.0126497291523613
0.4055	-0.0128938735027085
0.405625	-0.0120698863202869
0.40575	-0.0124361028458076
0.405875	-0.0128023193713283
0.406	-0.0128938735027085
0.406125	-0.0125886930647745
0.40625	-0.0262912947280079
0.406375	-0.0305027847714961
0.4065	-0.0289158464942397
0.406625	-0.0306248569466697
0.40675	-0.028397039749752
0.406875	-0.0292820630197604
0.407	-0.0298924238956283
0.407125	-0.0306553749904631
0.40725	-0.0298008697642481
0.407375	-0.030411230640116
0.4075	-0.029556725413901
0.407625	-0.0286411841000992
0.40775	-0.0298313878080415
0.407875	-0.0291294728007935
0.408	-0.0299839780270085
0.408125	-0.027695124742504
0.40825	-0.0382848859388113
0.408375	-0.0472266727702754
0.4085	-0.0457618066681926
0.408625	-0.0473182269016556
0.40875	-0.0457007705806058
0.408875	-0.0458228427557794
0.409	-0.0464026855878538
0.409125	-0.0469520103761349
0.40925	-0.0457312886243992
0.409375	-0.045792324711986
0.4095	-0.0462500953688869
0.409625	-0.0453345540550851
0.40975	-0.0470130464637217
0.409875	-0.0462500953688869
0.41	-0.0466773479819944
0.410125	-0.0460059510185397
0.41025	-0.0485084306095979
0.410375	-0.0623025864042115
0.4105	-0.0629129472800793
0.410625	-0.0615091172655833
0.41075	-0.0619058518348974
0.410875	-0.0624246585793851
0.411	-0.0626382848859388
0.411125	-0.0619974059662776
0.41125	-0.0623025864042115
0.411375	-0.0627603570611124
0.4115	-0.0621194781414511
0.411625	-0.0626688029297322
0.41175	-0.0631876096742199
0.411875	-0.0623941405355917
0.412	-0.0626993209735256
0.412125	-0.0624246585793851
0.41225	-0.0619974059662776
0.412375	-0.0734721904325933
0.4125	-0.0800030518043793
0.412625	-0.0781414511329824
0.41275	-0.0780193789578088
0.412875	-0.0779888609140154
0.413	-0.0791485465781643
0.413125	-0.0785992217898833
0.41325	-0.078965438315404
0.413375	-0.0777141985198749
0.4135	-0.0777141985198749
0.413625	-0.0782330052643626
0.41375	-0.0784161135271229
0.413875	-0.0789959563591974
0.414	-0.0760051880674449
0.414125	-0.0775005722133211
0.41425	-0.075547417410544
0.414375	-0.0848859388113222
0.4145	-0.0981307698176547
0.414625	-0.0962386511024643
0.41475	-0.0966659037155718
0.414875	-0.0961165789272908
0.415	-0.0963607232776379
0.415125	-0.0950789654383154
0.41525	-0.0960250247959106
0.415375	-0.0970626382848859
0.4155	-0.0948348210879683
0.415625	-0.0954757000076295
0.41575	-0.0958113984893568
0.415875	-0.0950789654383154
0.416	-0.0957503624017701
0.416125	-0.0954451819638361
0.41625	-0.0951400015259022
0.416375	-0.0957503624017701
0.4165	-0.112199588006409
0.416625	-0.115678644998856
0.41675	-0.114274814984359
0.416875	-0.114030670634012
0.417	-0.113511863889525
0.417125	-0.115068284122988
0.41725	-0.114152742809186
0.417375	-0.113267719539178
0.4175	-0.111985961699855
0.417625	-0.113664454108492
0.41775	-0.112016479743648
0.417875	-0.112993057145037
0.418	-0.112077515831235
0.418125	-0.112321660181582
0.41825	-0.112413214312963
0.418375	-0.112870984969863
0.4185	-0.109971770809491
0.418625	-0.106523231860838
0.41875	-0.1076218814374
0.418875	-0.106340123598077
0.419	-0.107774471656367
0.419125	-0.106736858167391
0.41925	-0.106919966430152
0.419375	-0.106401159685664
0.4195	-0.106279087510491
0.419625	-0.106889448386358
0.41975	-0.106553749904631
0.419875	-0.107011520561532
0.42	-0.106370641641871
0.420125	-0.106431677729458
0.42025	-0.104661631189441
0.420375	-0.104997329671168
0.4205	-0.104722667277028
0.420625	-0.100236514839399
0.42075	-0.100999465934234
0.420875	-0.100480659189746
0.421	-0.10096894789044
0.421125	-0.099473563744564
0.42125	-0.0989852750438697
0.421375	-0.0997787441824979
0.4215	-0.0990768291752499
0.421625	-0.0994125276569772
0.42175	-0.0981612878614481
0.421875	-0.0992294193942168
0.422	-0.0989242389562829
0.422125	-0.0992599374380102
0.42225	-0.0995956359197376
0.422375	-0.0984969863431754
0.4225	-0.09916838330663
0.422625	-0.0950789654383154
0.42275	-0.0930342565041581
0.422875	-0.093492027161059
0.423	-0.0925764858472572
0.423125	-0.0930342565041581
0.42325	-0.0926985580224308
0.423375	-0.0933699549858854
0.4235	-0.0934004730296788
0.423625	-0.0931258106355383
0.42375	-0.0929427023727779
0.423875	-0.0918440527962158
0.424	-0.0921797512779431
0.424125	-0.092637521934844
0.42425	-0.091783016708629
0.424375	-0.0920271610589761
0.4245	-0.0923018234531167
0.424625	-0.090074006256199
0.42475	-0.0871442740520333
0.424875	-0.0860151064316777
0.425	-0.086655985351339
0.425125	-0.0873884184023804
0.42525	-0.0872358281834134
0.425375	-0.0868085755703059
0.4255	-0.0869001297016861
0.425625	-0.0869001297016861
0.42575	-0.0869611657892729
0.425875	-0.0861982146944381
0.426	-0.0850690470740826
0.426125	-0.0850690470740826
0.42625	-0.0847028305485618
0.426375	-0.0847028305485618
0.4265	-0.0851911192492561
0.426625	-0.0854657816433967
0.42675	-0.0810711833371481
0.426875	-0.0803387502861067
0.427	-0.0804913405050736
0.427125	-0.0793316548409247
0.42725	-0.079514763103685
0.427375	-0.0801251239795529
0.4275	-0.079514763103685
0.427625	-0.0787518120088502
0.42775	-0.0793621728847181
0.427875	-0.0787212939650568
0.428	-0.0785992217898833
0.428125	-0.0791180285343709
0.42825	-0.078965438315404
0.428375	-0.0800335698481727
0.4285	-0.0787518120088502
0.428625	-0.0803082322423133
0.42875	-0.0768291752498665
0.428875	-0.0724650949874113
0.429	-0.0743572137026017
0.429125	-0.0746013580529488
0.42925	-0.0740825513084611
0.429375	-0.0727397573815518
0.4295	-0.0736247806515602
0.429625	-0.073838406958114
0.42975	-0.0741741054398413
0.429875	-0.0741130693522545
0.43	-0.0730144197756924
0.430125	-0.0730449378194858
0.43025	-0.0737468528267338
0.430375	-0.0742046234836347
0.4305	-0.0732280460822461
0.430625	-0.0728007934691386
0.43075	-0.0731059739070726
0.430875	-0.0684672312504769
0.431	-0.0675822079804684
0.431125	-0.0684977492942702
0.43125	-0.0679789425497826
0.431375	-0.067704280155642
0.4315	-0.0683756771190967
0.431625	-0.0679484245059892
0.43175	-0.0674296177615015
0.431875	-0.0674296177615015
0.432	-0.066849774929427
0.432125	-0.0664225223163195
0.43225	-0.067856870374609
0.432375	-0.0667582207980468
0.4325	-0.0673380636301213
0.432625	-0.0672159914549477
0.43275	-0.0664835584039063
0.432875	-0.0639505607690547
0.433	-0.0609597924773022
0.433125	-0.0627603570611124
0.43325	-0.0615091172655833
0.433375	-0.0619668879224842
0.4335	-0.0619058518348974
0.433625	-0.0619668879224842
0.43375	-0.0615396353093767
0.433875	-0.0620584420538643
0.434	-0.0617532616159304
0.434125	-0.0609597924773022
0.43425	-0.0618448157473106
0.434375	-0.0622415503166247
0.4345	-0.0619058518348974
0.434625	-0.0613260090028229
0.43475	-0.061722743572137
0.434875	-0.0605935759517815
0.435	-0.0615396353093767
0.435125	-0.0615091172655833
0.43525	-0.0606546120393683
0.435375	-0.0601052872510872
0.4355	-0.0611429007400626
0.435625	-0.0613870450904097
0.43575	-0.060013733119707
0.435875	-0.0608072022583352
0.436	-0.0605020218204013
0.436125	-0.061020828564889
0.43625	-0.0607156481269551
0.436375	-0.0598306248569467
0.4365	-0.0609597924773022
0.436625	-0.0601358052948806
0.43675	-0.0601358052948806
0.436875	-0.0610513466086824
0.437	-0.0594033722438392
0.437125	-0.060013733119707
0.43725	-0.0601052872510872
0.437375	-0.0603799496452277
0.4375	-0.0599221789883269
0.437625	-0.0602273594262608
0.43775	-0.0605935759517815
0.437875	-0.0602578774700542
0.438	-0.0598611429007401
0.438125	-0.0601052872510872
0.43825	-0.0606546120393683
0.438375	-0.059311818112459
0.4385	-0.0598916609445335
0.438625	-0.0602578774700542
0.43875	-0.0599832150759136
0.438875	-0.0595254444190127
0.439	-0.0587624933241779
0.439125	-0.0601358052948806
0.43925	-0.0598611429007401
0.439375	-0.0601968413824674
0.4395	-0.0590676737621118
0.439625	-0.059464408331426
0.43975	-0.0598306248569467
0.439875	-0.0597085526817731
0.44	-0.0594949263752193
0.440125	-0.0592202639810788
0.44025	-0.0581826504921035
0.440375	-0.0585183489738308
0.4405	-0.0590676737621118
0.440625	-0.0584267948424506
0.44075	-0.0585183489738308
0.440875	-0.0582131685358969
0.441	-0.0587930113679713
0.441125	-0.0590066376745251
0.44125	-0.0586404211490043
0.441375	-0.0572976272220951
0.4415	-0.0573891813534752
0.441625	-0.0575722896162356
0.44175	-0.0571145189593347
0.441875	-0.0574196993972686
0.442	-0.0579079880979629
0.442125	-0.0582131685358969
0.44225	-0.0573281452658885
0.442375	-0.0572060730907149
0.4425	-0.0569314106965743
0.442625	-0.0565346761272602
0.44275	-0.0569619287403677
0.442875	-0.0563515678644999
0.443	-0.0567788204776074
0.443125	-0.0563515678644999
0.44325	-0.0569619287403677
0.443375	-0.0570840009155413
0.4435	-0.0564736400396735
0.443625	-0.0573891813534752
0.44375	-0.0565651941710536
0.443875	-0.0559548332951858
0.444	-0.0556496528572518
0.444125	-0.0565651941710536
0.44425	-0.056900892652781
0.444375	-0.0555886167696651
0.4445	-0.0561989776455329
0.444625	-0.0563210498207065
0.44475	-0.0561074235141527
0.444875	-0.055741206988632
0.445	-0.0565651941710536
0.445125	-0.0557106889448386
0.44525	-0.0546120393682765
0.445375	-0.0549782558937972
0.4455	-0.0555580987258717
0.445625	-0.054886701762417
0.44575	-0.0553749904631113
0.445875	-0.0559243152513924
0.446	-0.0560769054703594
0.446125	-0.0549172198062104
0.44625	-0.055039291981384
0.446375	-0.0556191348134585
0.4465	-0.0555275806820783
0.446625	-0.0560769054703594
0.44675	-0.0547646295872435
0.446875	-0.0542763408865492
0.447	-0.054337376974136
0.447125	-0.0548256656748302
0.44725	-0.056046387426566
0.447375	-0.0550087739375906
0.4475	-0.054184786755169
0.447625	-0.0553444724193179
0.44775	-0.0550087739375906
0.447875	-0.054886701762417
0.448	-0.0539711604486152
0.448125	-0.055039291981384
0.44825	-0.0556191348134585
0.448375	-0.0547341115434501
0.4485	-0.055191882200351
0.448625	-0.0558022430762188
0.44875	-0.0557717250324254
0.448875	-0.0545204852368963
0.449	-0.0551308461127642
0.449125	-0.055039291981384
0.44925	-0.0542458228427558
0.449375	-0.0533913176165408
0.4495	-0.0537270160982681
0.449625	-0.0541542687113756
0.44975	-0.0528725108720531
0.449875	-0.0535133897917143
0.45	-0.0545815213244831
0.450125	-0.0546120393682765
0.45025	-0.0545510032806897
0.450375	-0.0546120393682765
0.4505	-0.0538185702296483
0.450625	-0.0534218356603342
0.45075	-0.0528114747844663
0.450875	-0.0532997634851606
0.451	-0.0545815213244831
0.451125	-0.0536049439230945
0.45125	-0.0539101243610285
0.451375	-0.0538185702296483
0.4515	-0.0531471732661936
0.451625	-0.0536354619668879
0.45175	-0.0529335469596399
0.451875	-0.0538185702296483
0.452	-0.0529030289158465
0.452125	-0.0522621499961852
0.45225	-0.0537575341420615
0.452375	-0.0529945830472267
0.4525	-0.0533607995727474
0.452625	-0.0535744258793011
0.45275	-0.0533913176165408
0.452875	-0.0528419928282597
0.453	-0.0529640650034333
0.453125	-0.0532692454413672
0.45325	-0.0525062943465324
0.453375	-0.0525978484779126
0.4535	-0.052628366521706
0.453625	-0.0516823071641108
0.45375	-0.0524147402151522
0.453875	-0.052323186083772
0.454	-0.0521705958648051
0.454125	-0.0519264515144579
0.45425	-0.0523537041275654
0.454375	-0.0520180056458381
0.4545	-0.051773861295491
0.454625	-0.0523842221713588
0.45475	-0.0523537041275654
0.454875	-0.0524452582589456
0.455	-0.0507972838941024
0.455125	-0.0510414282444495
0.45525	-0.0511635004196231
0.455375	-0.0513466086823835
0.4555	-0.0522011139085985
0.455625	-0.0518348973830777
0.45575	-0.0515297169451438
0.455875	-0.0503700312809949
0.456	-0.0508583199816892
0.456125	-0.0521400778210117
0.45625	-0.0521400778210117
0.456375	-0.0508583199816892
0.4565	-0.0504921034561685
0.456625	-0.0505836575875486
0.45675	-0.0510414282444495
0.456875	-0.0506752117189288
0.457	-0.0502784771496147
0.457125	-0.0507362478065156
0.45725	-0.0500343327992676
0.457375	-0.0505531395437552
0.4575	-0.0507057297627222
0.457625	-0.0497291523613336
0.45775	-0.051468680857557
0.457875	-0.0503395132372015
0.458	-0.0507362478065156
0.458125	-0.0501869230182345
0.45825	-0.0498512245365072
0.458375	-0.0502479591058213
0.4585	-0.0500038147554742
0.458625	-0.0507362478065156
0.45875	-0.049057755397879
0.458875	-0.0504310673685817
0.459	-0.0498817425803006
0.459125	-0.0486915388723583
0.45925	-0.0496986343175402
0.459375	-0.0498207064927138
0.4595	-0.0489662012664988
0.459625	-0.0495460440985733
0.45975	-0.0492408636606394
0.459875	-0.0496986343175402
0.46	-0.0499732967116808
0.460125	-0.0499732967116808
0.46025	-0.0494239719233997
0.460375	-0.0493018997482261
0.4605	-0.049759670405127
0.460625	-0.0496375982299535
0.46075	-0.0490882734416724
0.460875	-0.0481727321278706
0.461	-0.0496681162737468
0.461125	-0.0482948043030442
0.46125	-0.0482337682154574
0.461375	-0.0491187914854658
0.4615	-0.0482337682154574
0.461625	-0.0491798275730526
0.46175	-0.0490882734416724
0.461875	-0.0479896238651102
0.462	-0.0481727321278706
0.462125	-0.0487830930037385
0.46225	-0.0482642862592508
0.462375	-0.0487220569161517
0.4625	-0.0488136110475319
0.462625	-0.049057755397879
0.46275	-0.048355840390631
0.462875	-0.0482948043030442
0.463	-0.048355840390631
0.463125	-0.048203250171664
0.46325	-0.0476234073395895
0.463375	-0.0474402990768292
0.4635	-0.0492408636606394
0.463625	-0.047196154726482
0.46375	-0.0477149614709697
0.463875	-0.0478675516899367
0.464	-0.0471046005951019
0.464125	-0.0473792629892424
0.46425	-0.0468909742885481
0.464375	-0.0483253223468376
0.4645	-0.0469825284199283
0.464625	-0.0467383840695811
0.46475	-0.0473182269016556
0.464875	-0.0465552758068208
0.465	-0.0470435645075151
0.465125	-0.0470740825513085
0.46525	-0.0470130464637217
0.465375	-0.0475928892957961
0.4655	-0.0466773479819944
0.465625	-0.0478065156023499
0.46575	-0.0474708171206226
0.465875	-0.0470740825513085
0.466	-0.0464332036316472
0.466125	-0.0462195773250935
0.46625	-0.0470435645075151
0.466375	-0.0462195773250935
0.4665	-0.0467689021133745
0.466625	-0.0461585412375067
0.46675	-0.0466773479819944
0.466875	-0.0461585412375067
0.467	-0.0468299382009613
0.467125	-0.0467383840695811
0.46725	-0.0463721675440604
0.467375	-0.0461890592813001
0.4675	-0.046494239719234
0.467625	-0.0469520103761349
0.46775	-0.0464026855878538
0.467875	-0.0454566262302586
0.468	-0.0459754329747463
0.468125	-0.0464026855878538
0.46825	-0.0463721675440604
0.468375	-0.0459449149309529
0.4685	-0.0460975051499199
0.468625	-0.0458838788433661
0.46875	-0.0459143968871595
0.468875	-0.0459449149309529
0.469	-0.0454261081864652
0.469125	-0.0457312886243992
0.46925	-0.0458228427557794
0.469375	-0.0449073014419776
0.4695	-0.0453955901426719
0.469625	-0.0445410849164569
0.46975	-0.0448157473105974
0.469875	-0.0454261081864652
0.47	-0.0456092164492256
0.470125	-0.0462500953688869
0.47025	-0.0446631570916304
0.470375	-0.0453955901426719
0.4705	-0.0453040360112917
0.470625	-0.044785229266804
0.47075	-0.0457618066681926
0.470875	-0.0457312886243992
0.471	-0.0448462653543908
0.471125	-0.044785229266804
0.47125	-0.0446631570916304
0.471375	-0.0455176623178454
0.4715	-0.0447547112230106
0.471625	-0.0444800488288701
0.47175	-0.0446936751354238
0.471875	-0.0453040360112917
0.472	-0.0448767833981842
0.472125	-0.0431067368581674
0.47225	-0.0441748683909361
0.472375	-0.0448157473105974
0.4725	-0.043930724040589
0.472625	-0.0442053864347295
0.47275	-0.0439917601281758
0.472875	-0.0440222781719692
0.473	-0.0448462653543908
0.473125	-0.0440222781719692
0.47325	-0.0441443503471428
0.473375	-0.0443274586099031
0.4735	-0.0424963759822995
0.473625	-0.0428931105516136
0.47375	-0.044083314259556
0.473875	-0.0445410849164569
0.474	-0.0431982909895476
0.474125	-0.0438391699092088
0.47425	-0.0428931105516136
0.474375	-0.0433508812085145
0.4745	-0.0439917601281758
0.474625	-0.0438391699092088
0.47475	-0.0439002059967956
0.474875	-0.0430457007705806
0.475	-0.0435645075150683
0.475125	-0.0428320744640269
0.47525	-0.0436255436026551
0.475375	-0.0436560616464485
0.4755	-0.0427405203326467
0.475625	-0.0426489662012665
0.47575	-0.0430457007705806
0.475875	-0.0420080872816053
0.476	-0.042069123369192
0.476125	-0.0425879301136797
0.47625	-0.0419470511940185
0.476375	-0.0426184481574731
0.4765	-0.0435339894712749
0.476625	-0.0435034714274815
0.47675	-0.0431677729457542
0.476875	-0.0427100022888533
0.477	-0.0424048218509194
0.477125	-0.0437170977340352
0.47725	-0.0426489662012665
0.477375	-0.0424353398947128
0.4775	-0.0424658579385061
0.477625	-0.0425879301136797
0.47775	-0.0428320744640269
0.477875	-0.0428015564202335
0.478	-0.042923628595407
0.478125	-0.042221713588159
0.47825	-0.0411535820553902
0.478375	-0.0421606775005722
0.4785	-0.0416113527122911
0.478625	-0.0413061722743572
0.47875	-0.0423437857633326
0.478875	-0.0412756542305638
0.479	-0.0418249790188449
0.479125	-0.0417639429312581
0.47925	-0.0409399557488365
0.479375	-0.0417334248874647
0.4795	-0.0416723887998779
0.479625	-0.0409704737926299
0.47975	-0.0404211490043488
0.479875	-0.0414892805371176
0.48	-0.0407873655298695
0.480125	-0.0408789196612497
0.48025	-0.0405432211795224
0.480375	-0.0402075226977951
0.4805	-0.0415808346684977
0.480625	-0.0405432211795224
0.48075	-0.0407263294422828
0.480875	-0.0418554970626383
0.481	-0.040512703135729
0.481125	-0.0401770046540017
0.48125	-0.0410315098802167
0.481375	-0.0398718242160677
0.4815	-0.0397802700846876
0.481625	-0.0395666437781338
0.48175	-0.0401464866102083
0.481875	-0.0402075226977951
0.482	-0.0405737392233158
0.482125	-0.0407873655298695
0.48225	-0.0406347753109026
0.482375	-0.0398718242160677
0.4825	-0.0411535820553902
0.482625	-0.0402380407415885
0.48275	-0.0409399557488365
0.482875	-0.0416113527122911
0.483	-0.0401159685664149
0.483125	-0.0410315098802167
0.48325	-0.0404821850919356
0.483375	-0.0408178835736629
0.4835	-0.0406958113984894
0.483625	-0.0399023422598611
0.48375	-0.0402075226977951
0.483875	-0.0404516670481422
0.484	-0.0395666437781338
0.484125	-0.0402075226977951
0.48425	-0.0397497520408942
0.484375	-0.0399328603036545
0.4845	-0.0408178835736629
0.484625	-0.0395361257343404
0.48475	-0.0399023422598611
0.484875	-0.0402685587853819
0.485	-0.0399023422598611
0.485125	-0.0387121385519188
0.48525	-0.0397497520408942
0.485375	-0.0401770046540017
0.4855	-0.0390173189898528
0.485625	-0.0397192339971008
0.48575	-0.0384374761577783
0.485875	-0.0383764400701915
0.486	-0.0382238498512245
0.486125	-0.0393224994277867
0.48625	-0.0395361257343404
0.486375	-0.038101777676051
0.4865	-0.0382238498512245
0.486625	-0.0377660791943236
0.48675	-0.0374608987563897
0.486875	-0.0392004272526131
0.487	-0.0394445716029602
0.487125	-0.0392919813839933
0.48725	-0.0392614633401999
0.487375	-0.0379797055008774
0.4875	-0.0381322957198444
0.487625	-0.0391393911650263
0.48775	-0.0385900663767453
0.487875	-0.0377050431067369
0.488	-0.0387426565957122
0.488125	-0.0391088731212329
0.48825	-0.0387121385519188
0.488375	-0.0388342107270924
0.4885	-0.0377050431067369
0.488625	-0.0384985122453651
0.48875	-0.0382848859388113
0.488875	-0.0373693446250095
0.489	-0.0375829709315633
0.489125	-0.0372777904936294
0.48925	-0.0385290302891585
0.489375	-0.037949187457084
0.4895	-0.0384985122453651
0.489625	-0.0376134889753567
0.48975	-0.0371557183184558
0.489875	-0.0377355611505302
0.49	-0.037247272449836
0.490125	-0.0368505378805219
0.49025	-0.0375219348439765
0.490375	-0.0369115739681086
0.4905	-0.0381933318074311
0.490625	-0.038101777676051
0.49075	-0.0364843213550011
0.490875	-0.036240177004654
0.491	-0.0361486228732738
0.491125	-0.0373388265812161
0.49125	-0.0364232852674144
0.491375	-0.0370336461432822
0.4915	-0.0374303807125963
0.491625	-0.0374303807125963
0.49175	-0.0368810559243153
0.491875	-0.0365148393987945
0.492	-0.0366369115739681
0.492125	-0.0368200198367285
0.49225	-0.0359960326543069
0.492375	-0.0359044785229267
0.4925	-0.0366979476615549
0.492625	-0.036942092011902
0.49275	-0.0356603341725795
0.492875	-0.0365148393987945
0.493	-0.0360265506981002
0.493125	-0.0365758754863813
0.49325	-0.0361181048294804
0.493375	-0.0363012130922408
0.4935	-0.0362706950484474
0.493625	-0.0358434424353399
0.49375	-0.0371557183184558
0.493875	-0.0369726100556954
0.494	-0.036087586785687
0.494125	-0.0362096589608606
0.49425	-0.0360570687418936
0.494375	-0.0358434424353399
0.4945	-0.036240177004654
0.494625	-0.0354772259098192
0.49475	-0.0365453574425879
0.494875	-0.0362096589608606
0.495	-0.0357213702601663
0.495125	-0.0357213702601663
0.49525	-0.0359044785229267
0.495375	-0.0357518883039597
0.4955	-0.0348363469901579
0.495625	-0.0360570687418936
0.49575	-0.0354772259098192
0.495875	-0.0352025635156786
0.496	-0.0358434424353399
0.496125	-0.0351415274280919
0.49625	-0.0343175402456703
0.496375	-0.0361791409170672
0.4965	-0.036087586785687
0.496625	-0.0347753109025711
0.49675	-0.0350194552529183
0.496875	-0.0352025635156786
0.497	-0.0357518883039597
0.497125	-0.0359960326543069
0.49725	-0.0358129243915465
0.497375	-0.0348668650339513
0.4975	-0.0353551537346456
0.497625	-0.0347447928587778
0.49775	-0.0344090943770504
0.497875	-0.0349889372091249
0.498	-0.0350194552529183
0.498125	-0.0348668650339513
0.49825	-0.0342259861142901
0.498375	-0.0345922026398108
0.4985	-0.0346532387273976
0.498625	-0.035233081559472
0.49875	-0.0344396124208438
0.498875	-0.0348973830777447
0.499	-0.0356603341725795
0.499125	-0.0338597695887694
0.49925	-0.0342259861142901
0.499375	-0.0350804913405051
0.4995	-0.0340123598077363
0.499625	-0.0333714808880751
0.49975	-0.0347753109025711
0.499875	-0.0341039139391165
0.5	-0.0345616845960174
0.500125	-0.0333104448004883
0.50025	-0.0342259861142901
0.500375	-0.0343175402456703
0.5005	-0.0338597695887694
0.500625	-0.0344396124208438
0.50075	-0.0333104448004883
0.500875	-0.033829251544976
0.501	-0.033676661326009
0.501125	-0.0340428778515297
0.50125	-0.0336156252384222
0.501375	-0.032974746318761
0.5015	-0.032974746318761
0.501625	-0.0335545891508354
0.50175	-0.0334630350194553
0.501875	-0.0330968184939345
0.502	-0.0329137102311742
0.502125	-0.0330663004501411
0.50225	-0.0334630350194553
0.502375	-0.0333104448004883
0.5025	-0.0330968184939345
0.502625	-0.0340733958953231
0.50275	-0.0326085297932403
0.502875	-0.0327000839246204
0.503	-0.0337071793698024
0.503125	-0.0326085297932403
0.50325	-0.0327000839246204
0.503375	-0.0327306019684138
0.5035	-0.0329442282749676
0.503625	-0.0325474937056535
0.50375	-0.0324559395742733
0.503875	-0.0329442282749676
0.504	-0.0325780117494469
0.504125	-0.0323949034866865
0.50425	-0.032822156099794
0.504375	-0.032974746318761
0.5045	-0.0322117952239261
0.504625	-0.0328526741435874
0.50475	-0.0330663004501411
0.504875	-0.0330357824063478
0.505	-0.0323949034866865
0.505125	-0.032669565880827
0.50525	-0.0320286869611658
0.505375	-0.0333104448004883
0.5055	-0.0326390478370336
0.505625	-0.0314183260852979
0.50575	-0.0331273365377279
0.505875	-0.0323033493553063
0.506	-0.0315709163042649
0.506125	-0.031815060654612
0.50625	-0.0320592050049592
0.506375	-0.0323033493553063
0.5065	-0.0323338673990997
0.506625	-0.0317540245670253
0.50675	-0.030106050202182
0.506875	-0.029251544975967
0.507	-0.0290989547570001
0.507125	-0.0300450141145953
0.50725	-0.0290379186694133
0.507375	-0.0288548104066529
0.5075	-0.0292820630197604
0.507625	-0.0301365682459754
0.50775	-0.0301365682459754
0.507875	-0.0299229419394217
0.508	-0.0297703517204547
0.508125	-0.0294956893263142
0.50825	-0.0297093156328679
0.508375	-0.0297703517204547
0.5085	-0.0301365682459754
0.508625	-0.0291905088883803
0.50875	-0.027847714961471
0.508875	-0.0270237277790494
0.509	-0.027542534523537
0.509125	-0.0269321736476692
0.50925	-0.0273899443045701
0.509375	-0.0268711375600824
0.5095	-0.0269626916914626
0.509625	-0.0275730525673304
0.50975	-0.0264133669031815
0.509875	-0.0272068360418097
0.51	-0.0271457999542229
0.510125	-0.0270542458228428
0.51025	-0.0271152819104295
0.510375	-0.0273899443045701
0.5105	-0.0266575112535286
0.510625	-0.0264133669031815
0.51075	-0.0256504158083467
0.510875	-0.0244907301441978
0.511	-0.0238803692683299
0.511125	-0.0237888151369497
0.51125	-0.0243381399252308
0.511375	-0.0233920805676356
0.5115	-0.024429694056611
0.511625	-0.0234836346990158
0.51175	-0.0238498512245365
0.511875	-0.0240939955748837
0.512	-0.0239719233997101
0.512125	-0.0242465857938506
0.51225	-0.0243991760128176
0.512375	-0.0239719233997101
0.5125	-0.0240329594872969
0.512625	-0.0230869001297017
0.51275	-0.0239108873121233
0.512875	-0.0216220340276188
0.513	-0.0208285648889906
0.513125	-0.0217746242465858
0.51325	-0.0215304798962387
0.513375	-0.0222018768596933
0.5135	-0.0215304798962387
0.513625	-0.021560997940032
0.51375	-0.0204928664072633
0.513875	-0.019851987487602
0.514	-0.0197604333562219
0.514125	-0.0203707942320897
0.51425	-0.0197604333562219
0.514375	-0.0204318303196765
0.5145	-0.0215915159838254
0.514625	-0.0209811551079576
