0.0232700083924620
0.0249790188448920
-0.00865186541542687
-0.00343327992675670
-0.00663767452506294
-0.00404364080262455
-0.00569161516746777
-0.00566109712367437
-0.00566109712367437
-0.00480659189745937
-0.00587472343022812
-0.00553902494850080
-0.00563057907988098
-0.00492866407263294
-0.00520332646677348
-0.00495918211642634
-0.00483710994125277
-0.00486762798504616
-0.00468451972228580
-0.00416571297779812
-0.00398260471503777
-0.00419623102159152
-0.00410467689021134
-0.00477607385366598
-0.00532539864194705
-0.00511177233539330
-0.00489814602883955
-0.00419623102159152
-0.00440985732814527
-0.00447089341573205
-0.00520332646677348
-0.00401312275883116
-0.00428778515297170
-0.00492866407263294
-0.00459296559090562
-0.00563057907988098
-0.00453192950331884
-0.00544747081712062
-0.00437933928435187
-0.00425726710917830
-0.00578316929884794
-0.00440985732814527
-0.00495918211642634
-0.00547798886091402
-0.00523384451056687
-0.00547798886091402
-0.00526436255436027
-0.00465400167849241
-0.00505073624780652
-0.00471503776607919
-0.00520332646677348
-0.00584420538643473
-0.00447089341573205
-0.00450141145952544
-0.00526436255436027
-0.00483710994125277
-0.00419623102159152
-0.00553902494850080
-0.00428778515297170
-0.00373846036469062
-0.00468451972228580
-0.00389105058365759
-0.00517280842298009
-0.00468451972228580
-0.00395208667124437
-0.00413519493400473
-0.00373846036469062
-0.00422674906538491
-0.00453192950331884
-0.00401312275883116
-0.00434882124055848
-0.00447089341573205
-0.00379949645227741
-0.00468451972228580
-0.00447089341573205
-0.00471503776607919
-0.00352483405813687
-0.00447089341573205
-0.00392156862745098
-0.00419623102159152
-0.00352483405813687
-0.00410467689021134
-0.00480659189745937
-0.00413519493400473
-0.00312809948882277
-0.00407415884641795
-0.00425726710917830
-0.00251773861295491
-0.00358587014572366
-0.00361638818951705
-0.00352483405813687
-0.00389105058365759
-0.00367742427710384
-0.00383001449607080
-0.00465400167849241
-0.00401312275883116
-0.00358587014572366
-0.00355535210193027
-0.00337224383916991
-0.00312809948882277
-0.00379949645227741
-0.00453192950331884
-0.00425726710917830
-0.00447089341573205
-0.00340276188296330
-0.00297550926985580
-0.00346379797055009
-0.00459296559090562
-0.00444037537193866
-0.00453192950331884
-0.00520332646677348
-0.00416571297779812
-0.00379949645227741
-0.00389105058365759
-0.00376897840848402
-0.00334172579537652
-0.00318913557640955
-0.00321965362020295
-0.00395208667124437
-0.00349431601434348
-0.00431830319676509
-0.00440985732814527
-0.00428778515297170
-0.00505073624780652
-0.00462348363469902
-0.00505073624780652
-0.00355535210193027
-0.00486762798504616
-0.00492866407263294
-0.00468451972228580
-0.00520332646677348
-0.00328068970778973
-0.00398260471503777
-0.00413519493400473
-0.00352483405813687
-0.00340276188296330
-0.00407415884641795
-0.00392156862745098
-0.00383001449607080
-0.00358587014572366
-0.00355535210193027
-0.00340276188296330
-0.00407415884641795
-0.00471503776607919
-0.00294499122606241
-0.00349431601434348
-0.00376897840848402
-0.00343327992675670
-0.00398260471503777
-0.00404364080262455
-0.00401312275883116
-0.00489814602883955
-0.00404364080262455
-0.00422674906538491
-0.00398260471503777
-0.00367742427710384
-0.00434882124055848
-0.00370794232089723
-0.00462348363469902
-0.00502021820401312
-0.00459296559090562
-0.00373846036469062
-0.00444037537193866
-0.00392156862745098
-0.00514229037918669
-0.00471503776607919
-0.00349431601434348
-0.00532539864194705
-0.00422674906538491
-0.00495918211642634
-0.00483710994125277
-0.00367742427710384
-0.00392156862745098
-0.00395208667124437
-0.00404364080262455
-0.00398260471503777
-0.00428778515297170
-0.00367742427710384
-0.00453192950331884
-0.00498970016021973
-0.00456244754711223
-0.00434882124055848
-0.00383001449607080
-0.00413519493400473
-0.00401312275883116
-0.00349431601434348
-0.00450141145952544
-0.00318913557640955
-0.00447089341573205
-0.00410467689021134
-0.00343327992675670
-0.00331120775158312
-0.00495918211642634
-0.00416571297779812
-0.00410467689021134
-0.00416571297779812
-0.00370794232089723
-0.00395208667124437
-0.00383001449607080
-0.00434882124055848
-0.00364690623331045
-0.00410467689021134
-0.00404364080262455
-0.00355535210193027
-0.00389105058365759
-0.00410467689021134
-0.00361638818951705
-0.00340276188296330
-0.00373846036469062
-0.00437933928435187
-0.00306706340123598
-0.00398260471503777
-0.00321965362020295
-0.00337224383916991
-0.00334172579537652
-0.00267032883192187
-0.00379949645227741
-0.00398260471503777
-0.00398260471503777
-0.00437933928435187
-0.00444037537193866
-0.00447089341573205
-0.00373846036469062
-0.00465400167849241
-0.00376897840848402
-0.00468451972228580
-0.00492866407263294
-0.00398260471503777
-0.00422674906538491
-0.00413519493400473
-0.00364690623331045
-0.00367742427710384
-0.00477607385366598
-0.00410467689021134
-0.00355535210193027
-0.00303654535744259
-0.00270084687571527
-0.00328068970778973
-0.00422674906538491
-0.00349431601434348
-0.00352483405813687
-0.00483710994125277
-0.00346379797055009
-0.00386053253986420
-0.00480659189745937
-0.00337224383916991
-0.00352483405813687
-0.00398260471503777
-0.00349431601434348
-0.00434882124055848
-0.00434882124055848
-0.00401312275883116
-0.00456244754711223
-0.00367742427710384
-0.00437933928435187
-0.00538643472953384
-0.00349431601434348
-0.00321965362020295
-0.00389105058365759
-0.00346379797055009
-0.00340276188296330
-0.00376897840848402
-0.00413519493400473
-0.00328068970778973
-0.00489814602883955
-0.00532539864194705
-0.00413519493400473
-0.00306706340123598
-0.00376897840848402
-0.00428778515297170
-0.00386053253986420
-0.00355535210193027
-0.00321965362020295
-0.00279240100709545
-0.00395208667124437
-0.00367742427710384
-0.00328068970778973
-0.00471503776607919
-0.00346379797055009
-0.00376897840848402
-0.00361638818951705
-0.00422674906538491
-0.00334172579537652
-0.00331120775158312
-0.00477607385366598
-0.00315861753261616
-0.00456244754711223
-0.00373846036469062
-0.00379949645227741
-0.00413519493400473
-0.00386053253986420
-0.00474555580987259
-0.00364690623331045
-0.00306706340123598
-0.00419623102159152
-0.00444037537193866
-0.00355535210193027
-0.00395208667124437
-0.00361638818951705
-0.00392156862745098
-0.00303654535744259
-0.00279240100709545
-0.00352483405813687
-0.00389105058365759
-0.00328068970778973
-0.00370794232089723
-0.00459296559090562
-0.00367742427710384
-0.00413519493400473
-0.00416571297779812
-0.00502021820401312
-0.00456244754711223
-0.00263981078812848
-0.00383001449607080
-0.00312809948882277
-0.00456244754711223
-0.00462348363469902
-0.00358587014572366
-0.00453192950331884
-0.00337224383916991
-0.00419623102159152
-0.00282291905088884
-0.00294499122606241
-0.00346379797055009
-0.00395208667124437
-0.00328068970778973
-0.00358587014572366
-0.00401312275883116
-0.00361638818951705
-0.00379949645227741
-0.00401312275883116
-0.00474555580987259
-0.00480659189745937
-0.00523384451056687
-0.00361638818951705
-0.00325017166399634
-0.00340276188296330
-0.00440985732814527
-0.00404364080262455
-0.00325017166399634
-0.00459296559090562
-0.00468451972228580
-0.00376897840848402
-0.00300602731364920
-0.00349431601434348
-0.00425726710917830
-0.00447089341573205
-0.00434882124055848
-0.00389105058365759
-0.00343327992675670
-0.00389105058365759
-0.00474555580987259
-0.00440985732814527
-0.00407415884641795
-0.00318913557640955
-0.00315861753261616
-0.00386053253986420
-0.00376897840848402
-0.00462348363469902
-0.00392156862745098
-0.00419623102159152
-0.00425726710917830
-0.00447089341573205
-0.00331120775158312
-0.00306706340123598
-0.00413519493400473
-0.00465400167849241
-0.00425726710917830
-0.00376897840848402
-0.00361638818951705
-0.00367742427710384
-0.00346379797055009
-0.00450141145952544
-0.00404364080262455
-0.00352483405813687
-0.00431830319676509
-0.00361638818951705
-0.00407415884641795
-0.00428778515297170
-0.00419623102159152
-0.00407415884641795
-0.00331120775158312
-0.00263981078812848
-0.00291447318226902
-0.00370794232089723
-0.00337224383916991
-0.00370794232089723
-0.00343327992675670
-0.00346379797055009
-0.00410467689021134
-0.00318913557640955
-0.00428778515297170
-0.00318913557640955
-0.00413519493400473
-0.00419623102159152
-0.00279240100709545
-0.00334172579537652
-0.00392156862745098
-0.00352483405813687
-0.00361638818951705
-0.00349431601434348
-0.00379949645227741
-0.00340276188296330
-0.00352483405813687
-0.00376897840848402
-0.00468451972228580
-0.00440985732814527
-0.00312809948882277
-0.00383001449607080
-0.00355535210193027
-0.00367742427710384
-0.00361638818951705
-0.00306706340123598
-0.00260929274433509
-0.00346379797055009
-0.00428778515297170
-0.00349431601434348
-0.00297550926985580
-0.00361638818951705
-0.00315861753261616
-0.00352483405813687
-0.00416571297779812
-0.00340276188296330
-0.00468451972228580
-0.00450141145952544
-0.00437933928435187
-0.00370794232089723
-0.00309758144502937
-0.00221255817502098
-0.00300602731364920
-0.00404364080262455
-0.00303654535744259
-0.00263981078812848
-0.00303654535744259
-0.00361638818951705
-0.00239566643778134
-0.00263981078812848
-0.00245670252536812
-0.00407415884641795
-0.00407415884641795
-0.00367742427710384
-0.00315861753261616
-0.00364690623331045
-0.00373846036469062
-0.00343327992675670
-0.00318913557640955
-0.00297550926985580
-0.00349431601434348
-0.00328068970778973
-0.00367742427710384
-0.00422674906538491
-0.00434882124055848
-0.00346379797055009
-0.00236514839398795
-0.00392156862745098
-0.00352483405813687
-0.00282291905088884
-0.00392156862745098
-0.00355535210193027
-0.00300602731364920
-0.00367742427710384
-0.00279240100709545
-0.00340276188296330
-0.00379949645227741
-0.00392156862745098
-0.00447089341573205
-0.00355535210193027
-0.00267032883192187
-0.00288395513847562
-0.00419623102159152
-0.00379949645227741
-0.00410467689021134
-0.00425726710917830
-0.00373846036469062
-0.00349431601434348
-0.00367742427710384
-0.00434882124055848
-0.00422674906538491
-0.00358587014572366
-0.00459296559090562
-0.00383001449607080
-0.00358587014572366
-0.00422674906538491
-0.00401312275883116
-0.00294499122606241
-0.00270084687571527
-0.00285343709468223
-0.00312809948882277
-0.00453192950331884
-0.00383001449607080
-0.00367742427710384
-0.00383001449607080
-0.00440985732814527
-0.00477607385366598
-0.00489814602883955
-0.00447089341573205
-0.00352483405813687
-0.00367742427710384
-0.00416571297779812
-0.00392156862745098
-0.00379949645227741
-0.00383001449607080
-0.00300602731364920
-0.00389105058365759
-0.00389105058365759
-0.00389105058365759
-0.00392156862745098
-0.00425726710917830
-0.00434882124055848
-0.00413519493400473
-0.00386053253986420
-0.00392156862745098
-0.00294499122606241
-0.00254825665674830
-0.00285343709468223
-0.00352483405813687
-0.00425726710917830
-0.00413519493400473
-0.00401312275883116
-0.00407415884641795
-0.00407415884641795
-0.00401312275883116
-0.00416571297779812
-0.00386053253986420
-0.00370794232089723
-0.00312809948882277
-0.00383001449607080
-0.00462348363469902
-0.00428778515297170
-0.00407415884641795
-0.00404364080262455
-0.00343327992675670
-0.00389105058365759
-0.00398260471503777
-0.00386053253986420
-0.00346379797055009
-0.00404364080262455
-0.00361638818951705
-0.00279240100709545
-0.00422674906538491
-0.00401312275883116
-0.00392156862745098
-0.00291447318226902
-0.00306706340123598
-0.00337224383916991
-0.00367742427710384
-0.00383001449607080
-0.00321965362020295
-0.00334172579537652
-0.00379949645227741
-0.00468451972228580
-0.00358587014572366
-0.00468451972228580
-0.00386053253986420
-0.00309758144502937
-0.00376897840848402
-0.00358587014572366
-0.00321965362020295
-0.00355535210193027
-0.00318913557640955
-0.00321965362020295
-0.00312809948882277
-0.00315861753261616
-0.00263981078812848
-0.00288395513847562
-0.00340276188296330
-0.00279240100709545
-0.00376897840848402
-0.00297550926985580
-0.00401312275883116
-0.00465400167849241
-0.00395208667124437
-0.00260929274433509
-0.00294499122606241
-0.00395208667124437
-0.00410467689021134
-0.00404364080262455
-0.00404364080262455
-0.00386053253986420
-0.00349431601434348
-0.00364690623331045
-0.00437933928435187
-0.00444037537193866
-0.00428778515297170
-0.00392156862745098
-0.00355535210193027
-0.00419623102159152
-0.00358587014572366
-0.00312809948882277
-0.00270084687571527
-0.00321965362020295
-0.00361638818951705
-0.00389105058365759
-0.00440985732814527
-0.00334172579537652
-0.00297550926985580
-0.00395208667124437
-0.00291447318226902
-0.00288395513847562
-0.00218204013122759
-0.00263981078812848
-0.00279240100709545
-0.00285343709468223
-0.00395208667124437
-0.00325017166399634
-0.00285343709468223
-0.00282291905088884
-0.00245670252536812
-0.00337224383916991
-0.00349431601434348
-0.00248722056916152
-0.00328068970778973
-0.00413519493400473
-0.00355535210193027
-0.00328068970778973
-0.00282291905088884
-0.00343327992675670
-0.00364690623331045
-0.00364690623331045
-0.00413519493400473
-0.00349431601434348
-0.00309758144502937
-0.00291447318226902
-0.00376897840848402
-0.00224307621881437
-0.00190737773708705
-0.00212100404364080
-0.00276188296330205
-0.00227359426260777
-0.00318913557640955
-0.00346379797055009
-0.00352483405813687
-0.00361638818951705
-0.00230411230640116
-0.00221255817502098
-0.00346379797055009
-0.00386053253986420
-0.00321965362020295
-0.00270084687571527
-0.00282291905088884
-0.00300602731364920
-0.00325017166399634
-0.00334172579537652
-0.00239566643778134
-0.00367742427710384
-0.00328068970778973
-0.00325017166399634
-0.00431830319676509
-0.00349431601434348
-0.00373846036469062
-0.00282291905088884
-0.00343327992675670
-0.00331120775158312
-0.00343327992675670
-0.00410467689021134
-0.00263981078812848
-0.00279240100709545
-0.00419623102159152
-0.00248722056916152
-0.00325017166399634
-0.00343327992675670
-0.00248722056916152
-0.00291447318226902
-0.00303654535744259
-0.00331120775158312
-0.00257877470054170
-0.00431830319676509
-0.00337224383916991
-0.00401312275883116
-0.00331120775158312
-0.00395208667124437
-0.00389105058365759
-0.00367742427710384
-0.00364690623331045
-0.00315861753261616
-0.00343327992675670
-0.00288395513847562
-0.00386053253986420
-0.00431830319676509
-0.00291447318226902
-0.00285343709468223
-0.00349431601434348
-0.00312809948882277
-0.00425726710917830
-0.00416571297779812
-0.00379949645227741
-0.00343327992675670
-0.00459296559090562
-0.00291447318226902
-0.00236514839398795
-0.00431830319676509
-0.00410467689021134
-0.00352483405813687
-0.00328068970778973
-0.00437933928435187
-0.00325017166399634
-0.00361638818951705
-0.00398260471503777
-0.00352483405813687
-0.00395208667124437
-0.00401312275883116
-0.00318913557640955
-0.00431830319676509
-0.00334172579537652
-0.00437933928435187
-0.00422674906538491
-0.00361638818951705
-0.00465400167849241
-0.00251773861295491
-0.00364690623331045
-0.00239566643778134
-0.00361638818951705
-0.00340276188296330
-0.00221255817502098
-0.00383001449607080
-0.00376897840848402
-0.00318913557640955
-0.00349431601434348
-0.00285343709468223
-0.00291447318226902
-0.00389105058365759
-0.00285343709468223
-0.00306706340123598
-0.00285343709468223
-0.00367742427710384
-0.00407415884641795
-0.00416571297779812
-0.00334172579537652
-0.00325017166399634
-0.00309758144502937
-0.00334172579537652
-0.00459296559090562
-0.00444037537193866
-0.00425726710917830
-0.00312809948882277
-0.00376897840848402
-0.00355535210193027
-0.00383001449607080
-0.00425726710917830
-0.00376897840848402
-0.00425726710917830
-0.00343327992675670
-0.00364690623331045
-0.00407415884641795
-0.00270084687571527
-0.00251773861295491
-0.00273136491950866
-0.00367742427710384
-0.00471503776607919
-0.00428778515297170
-0.00404364080262455
-0.00361638818951705
-0.00285343709468223
-0.00361638818951705
-0.00321965362020295
-0.00328068970778973
-0.00373846036469062
-0.00389105058365759
-0.00334172579537652
-0.00358587014572366
-0.00471503776607919
-0.00431830319676509
-0.00370794232089723
-0.00389105058365759
-0.00386053253986420
-0.00340276188296330
-0.00370794232089723
-0.00193789578088045
-0.00285343709468223
-0.00392156862745098
-0.00309758144502937
-0.00419623102159152
-0.00245670252536812
-0.00306706340123598
-0.00428778515297170
-0.00306706340123598
-0.00248722056916152
-0.00285343709468223
-0.00263981078812848
-0.00370794232089723
-0.00434882124055848
-0.00364690623331045
-0.00315861753261616
-0.00257877470054170
-0.00276188296330205
-0.00288395513847562
-0.00352483405813687
-0.00410467689021134
-0.00376897840848402
-0.00254825665674830
-0.00218204013122759
-0.00267032883192187
-0.00218204013122759
-0.00334172579537652
-0.00367742427710384
-0.00355535210193027
-0.00328068970778973
-0.00273136491950866
-0.00416571297779812
-0.00367742427710384
-0.00379949645227741
-0.00303654535744259
-0.00260929274433509
-0.00334172579537652
-0.00340276188296330
-0.00376897840848402
-0.00328068970778973
-0.00343327992675670
-0.00346379797055009
-0.00373846036469062
-0.00370794232089723
-0.00383001449607080
-0.00413519493400473
-0.00346379797055009
-0.00440985732814527
-0.00407415884641795
-0.00291447318226902
-0.00337224383916991
-0.00251773861295491
-0.00205996795605402
-0.00273136491950866
-0.00361638818951705
-0.00343327992675670
-0.00355535210193027
-0.00358587014572366
-0.00260929274433509
-0.00294499122606241
-0.00379949645227741
-0.00376897840848402
-0.00367742427710384
-0.00383001449607080
-0.00315861753261616
-0.00260929274433509
-0.00361638818951705
-0.00392156862745098
-0.00352483405813687
-0.00343327992675670
-0.00254825665674830
-0.00425726710917830
-0.00364690623331045
-0.00260929274433509
-0.00300602731364920
-0.00205996795605402
-0.00321965362020295
-0.00260929274433509
-0.00361638818951705
-0.00355535210193027
-0.00263981078812848
-0.00340276188296330
-0.00270084687571527
-0.00346379797055009
-0.00361638818951705
-0.00358587014572366
-0.00205996795605402
-0.00251773861295491
-0.00355535210193027
-0.00383001449607080
-0.00379949645227741
-0.00328068970778973
-0.00297550926985580
-0.00315861753261616
-0.00401312275883116
-0.00349431601434348
-0.00242618448157473
-0.00270084687571527
-0.00306706340123598
-0.00294499122606241
-0.00331120775158312
-0.00337224383916991
-0.00352483405813687
-0.00334172579537652
-0.00376897840848402
-0.00300602731364920
-0.00181582360570687
-0.00187685969329366
-0.00248722056916152
-0.00215152208743420
-0.00279240100709545
-0.00352483405813687
-0.00212100404364080
-0.00169375143053330
-0.00196841382467384
-0.00163271534294652
-0.00315861753261616
-0.00294499122606241
-0.00132753490501259
-0.00279240100709545
-0.00267032883192187
-0.00306706340123598
-0.00242618448157473
-0.00279240100709545
-0.00303654535744259
-0.00209048599984741
-0.00309758144502937
-0.00312809948882277
-0.00325017166399634
-0.00254825665674830
-0.00270084687571527
-0.00401312275883116
-0.00288395513847562
-0.00187685969329366
-0.00218204013122759
-0.00279240100709545
-0.00386053253986420
-0.00263981078812848
-0.00306706340123598
-0.00370794232089723
-0.00312809948882277
-0.00181582360570687
-0.00209048599984741
-0.00334172579537652
-0.00334172579537652
-0.00236514839398795
-0.00242618448157473
-0.00224307621881437
-0.00260929274433509
-0.00318913557640955
-0.00263981078812848
-0.00346379797055009
-0.00337224383916991
-0.00337224383916991
-0.00224307621881437
-0.00288395513847562
-0.00270084687571527
-0.00303654535744259
-0.00270084687571527
-0.00340276188296330
-0.00297550926985580
-0.00205996795605402
-0.00282291905088884
-0.00297550926985580
-0.00312809948882277
-0.00288395513847562
-0.00291447318226902
-0.00260929274433509
-0.00276188296330205
-0.00358587014572366
-0.00309758144502937
-0.00196841382467384
-0.00318913557640955
-0.00361638818951705
-0.00221255817502098
-0.00282291905088884
-0.00334172579537652
-0.00199893186846723
-0.00190737773708705
-0.00209048599984741
-0.00169375143053330
-0.00239566643778134
-0.00303654535744259
-0.00227359426260777
-0.00257877470054170
-0.00297550926985580
-0.00273136491950866
-0.00306706340123598
-0.00325017166399634
-0.00187685969329366
-0.00196841382467384
-0.00224307621881437
-0.00218204013122759
-0.00349431601434348
-0.00312809948882277
-0.00248722056916152
-0.00337224383916991
-0.00297550926985580
-0.00205996795605402
-0.00306706340123598
-0.00334172579537652
-0.00346379797055009
-0.00376897840848402
-0.00260929274433509
-0.00230411230640116
-0.00325017166399634
-0.00303654535744259
-0.00254825665674830
-0.00260929274433509
-0.00224307621881437
-0.00285343709468223
-0.00379949645227741
-0.00373846036469062
-0.00373846036469062
-0.00285343709468223
-0.00303654535744259
-0.00349431601434348
-0.00279240100709545
-0.00328068970778973
-0.00263981078812848
-0.00325017166399634
-0.00315861753261616
-0.00267032883192187
-0.00254825665674830
-0.00358587014572366
-0.00285343709468223
-0.00300602731364920
-0.00318913557640955
-0.00148012512397955
-0.00288395513847562
-0.00282291905088884
-0.00263981078812848
-0.00257877470054170
-0.00315861753261616
-0.00251773861295491
-0.00288395513847562
-0.00233463035019455
-0.00212100404364080
-0.00303654535744259
-0.00276188296330205
-0.00288395513847562
-0.00184634164950027
-0.00218204013122759
-0.00224307621881437
-0.00193789578088045
-0.00196841382467384
-0.00300602731364920
-0.00312809948882277
-0.00355535210193027
-0.00321965362020295
-0.00328068970778973
-0.00315861753261616
-0.00205996795605402
-0.00242618448157473
-0.00303654535744259
-0.00306706340123598
-0.00321965362020295
-0.00276188296330205
-0.00209048599984741
-0.00291447318226902
-0.00160219729915312
-0.00282291905088884
-0.00334172579537652
-0.00270084687571527
-0.00260929274433509
-0.00276188296330205
-0.00257877470054170
-0.00263981078812848
-0.00364690623331045
-0.00254825665674830
-0.00346379797055009
-0.00331120775158312
-0.00248722056916152
-0.00248722056916152
-0.00297550926985580
-0.00325017166399634
-0.00303654535744259
-0.00205996795605402
-0.00285343709468223
-0.00331120775158312
-0.00273136491950866
-0.00331120775158312
-0.00263981078812848
-0.00260929274433509
-0.00321965362020295
-0.00248722056916152
-0.00321965362020295
-0.00334172579537652
-0.00205996795605402
-0.00294499122606241
-0.00227359426260777
-0.00239566643778134
-0.00224307621881437
-0.00245670252536812
-0.00276188296330205
-0.00230411230640116
-0.00297550926985580
-0.00285343709468223
-0.00282291905088884
-0.00254825665674830
-0.00331120775158312
-0.00254825665674830
-0.00282291905088884
-0.00273136491950866
-0.00257877470054170
-0.00242618448157473
-0.00254825665674830
-0.00190737773708705
-0.00270084687571527
-0.00260929274433509
-0.00221255817502098
-0.00245670252536812
-0.00257877470054170
-0.00309758144502937
-0.00288395513847562
-0.00285343709468223
-0.00376897840848402
-0.00285343709468223
-0.00254825665674830
-0.00273136491950866
-0.00196841382467384
-0.00282291905088884
-0.00346379797055009
-0.00254825665674830
-0.00218204013122759
-0.00297550926985580
-0.00285343709468223
-0.00187685969329366
-0.00163271534294652
-0.00205996795605402
-0.00309758144502937
-0.00297550926985580
-0.00270084687571527
-0.00282291905088884
-0.00242618448157473
-0.00239566643778134
-0.00276188296330205
-0.00212100404364080
-0.00383001449607080
-0.00312809948882277
-0.00242618448157473
-0.00306706340123598
-0.00270084687571527
-0.00364690623331045
-0.00218204013122759
-0.00282291905088884
-0.00358587014572366
-0.00251773861295491
-0.00227359426260777
-0.00242618448157473
-0.00267032883192187
-0.00187685969329366
-0.00291447318226902
-0.00331120775158312
-0.00270084687571527
-0.00318913557640955
-0.00337224383916991
-0.00367742427710384
-0.00334172579537652
-0.00175478751812009
-0.00297550926985580
-0.00334172579537652
-0.00227359426260777
-0.00303654535744259
-0.00267032883192187
-0.00273136491950866
-0.00312809948882277
-0.00288395513847562
-0.00273136491950866
-0.00279240100709545
-0.00297550926985580
-0.00263981078812848
-0.00138857099259937
-0.00212100404364080
-0.00172426947432670
-0.00285343709468223
-0.00401312275883116
-0.00315861753261616
-0.00340276188296330
-0.00193789578088045
-0.00349431601434348
-0.00306706340123598
-0.00267032883192187
-0.00361638818951705
-0.00209048599984741
-0.00294499122606241
-0.00245670252536812
-0.00315861753261616
-0.00276188296330205
-0.00279240100709545
-0.00285343709468223
-0.00270084687571527
-0.00267032883192187
-0.00187685969329366
-0.00202944991226062
-0.00267032883192187
-0.00349431601434348
-0.00270084687571527
-0.00212100404364080
-0.00279240100709545
-0.00291447318226902
-0.00184634164950027
-0.00248722056916152
-0.00337224383916991
-0.00181582360570687
-0.00303654535744259
-0.00386053253986420
-0.00230411230640116
-0.00251773861295491
-0.00291447318226902
-0.00300602731364920
-0.00202944991226062
-0.00218204013122759
-0.00361638818951705
-0.00239566643778134
-0.00196841382467384
-0.00257877470054170
-0.00358587014572366
-0.00273136491950866
-0.00251773861295491
-0.00343327992675670
-0.00224307621881437
-0.00245670252536812
-0.00248722056916152
-0.00288395513847562
-0.00297550926985580
-0.00248722056916152
-0.00202944991226062
-0.00202944991226062
-0.00202944991226062
-0.00318913557640955
-0.00306706340123598
-0.00184634164950027
-0.00181582360570687
-0.00154116121156634
-0.00172426947432670
-0.00184634164950027
-0.00169375143053330
-0.00154116121156634
-0.00212100404364080
-0.00242618448157473
-0.00270084687571527
-0.00294499122606241
-0.00190737773708705
-0.00270084687571527
-0.00358587014572366
-0.00218204013122759
-0.00263981078812848
-0.00175478751812009
-0.00178530556191348
-0.00300602731364920
-0.00251773861295491
-0.00196841382467384
-0.00148012512397955
-0.00160219729915312
-0.00282291905088884
-0.00306706340123598
-0.00193789578088045
-0.00199893186846723
-0.00172426947432670
-0.00245670252536812
-0.00328068970778973
-0.00383001449607080
-0.00306706340123598
-0.00279240100709545
-0.00346379797055009
-0.00334172579537652
-0.00248722056916152
-0.00236514839398795
-0.00205996795605402
-0.00291447318226902
-0.00376897840848402
-0.00300602731364920
-0.00349431601434348
-0.00297550926985580
-0.00239566643778134
-0.00312809948882277
-0.00334172579537652
-0.00315861753261616
-0.00358587014572366
-0.00337224383916991
-0.00321965362020295
-0.00303654535744259
-0.00248722056916152
-0.00346379797055009
-0.00245670252536812
-0.00224307621881437
-0.00190737773708705
-0.00209048599984741
-0.00202944991226062
-0.00227359426260777
-0.00315861753261616
-0.00245670252536812
-0.00199893186846723
-0.00233463035019455
-0.00346379797055009
-0.00349431601434348
-0.00325017166399634
-0.00260929274433509
-0.00331120775158312
-0.00239566643778134
-0.00209048599984741
-0.00267032883192187
-0.00212100404364080
-0.00267032883192187
-0.00260929274433509
-0.00300602731364920
-0.00267032883192187
-0.00245670252536812
-0.00346379797055009
-0.00300602731364920
-0.00218204013122759
-0.00282291905088884
-0.00282291905088884
-0.00334172579537652
-0.00331120775158312
-0.00251773861295491
-0.00233463035019455
-0.00230411230640116
-0.00352483405813687
-0.00297550926985580
-0.00196841382467384
-0.00257877470054170
-0.00321965362020295
-0.00236514839398795
-0.00175478751812009
-0.00321965362020295
-0.00315861753261616
-0.00245670252536812
-0.00224307621881437
-0.00267032883192187
-0.00306706340123598
-0.00288395513847562
-0.00172426947432670
-0.00184634164950027
-0.00166323338673991
-0.00297550926985580
-0.00306706340123598
-0.00355535210193027
-0.00337224383916991
-0.00209048599984741
-0.00245670252536812
-0.00309758144502937
-0.00370794232089723
-0.00294499122606241
-0.00328068970778973
-0.00248722056916152
-0.000869764248111696
-4.57770656900893e-05
-0.000839246204318303
-0.000228885328450446
-0.000320439459830625
-0.000473029678797589
-0.000625619897764553
-0.000595101853971161
0.000473029678797589
7.62951094834821e-05
-0.000564583810177768
-0.000656137941557946
-0.000930800335698482
-0.000930800335698482
-0.000534065766384375
-0.000778210116731518
0.00215152208743420
0.00270084687571527
0.00233463035019455
0.00157167925535973
0.00242618448157473
0.00315861753261616
0.00270084687571527
0.00184634164950027
0.00108339055466545
0.00144960708018616
0.00172426947432670
0.000991836423285267
0.00117494468604562
0.00138857099259937
0.00151064316777295
0.00166323338673991
0.00410467689021134
0.00419623102159152
0.00343327992675670
0.00526436255436027
0.00425726710917830
0.00379949645227741
0.00370794232089723
0.00337224383916991
0.00379949645227741
0.00346379797055009
0.00376897840848402
0.00483710994125277
0.00358587014572366
0.00434882124055848
0.00416571297779812
0.00312809948882277
0.00422674906538491
0.00624093995574884
0.00727855344472419
0.00752269779507134
0.00566109712367437
0.00694285496299687
0.00648508430609598
0.00648508430609598
0.00602731364919509
0.00697337300679026
0.00782787823300526
0.00611886778057527
0.00767528801403830
0.00688181887541009
0.00645456626230259
0.00691233691920348
0.00706492713817044
0.00883497367818723
0.00862134737163348
0.00910963607232776
0.00971999694819562
0.00941481651026169
0.00981155107957580
0.00984206912336919
0.0101167315175097
0.00926222629129473
0.00910963607232776
0.00959792477302205
0.00904859998474098
0.00950637064164187
0.00862134737163348
0.00794995040817884
0.00849927519645991
0.0101777676050965
0.0115205615320058
0.0101472495613031
0.0116731517509728
0.0118867780575265
0.0121614404516670
0.0119172961013199
0.0118562600137331
0.0121919584954604
0.0110933089188983
0.0105439841306172
0.0108491645685512
0.0109712367437247
0.0112764171816587
0.0113984893568322
0.0117647058823529
0.0123140306706340
0.0130159456778820
0.0133211261158160
0.0118867780575265
0.0119172961013199
0.0124055848020142
0.0114595254444190
0.0119172961013199
0.0127718013275349
0.0117647058823529
0.0120393682764935
0.0124055848020142
0.0121919584954604
0.0120393682764935
0.0111848630502785
0.0125581750209812
0.0117036697947662
0.0131074998092622
0.0148165102616922
0.0142977035172045
0.0143587396047913
0.0154573891813535
0.0156710154879072
0.0153963530937667
0.0139314869916838
0.0142671854734112
0.0140230411230640
0.0136873426413367
0.0135957885099565
0.0132295719844358
0.0138094148165103
0.0144808117799649
0.0148165102616922
0.0146944380865187
0.0163424124513619
0.0156404974441138
0.0162203402761883
0.0155184252689403
0.0152437628747997
0.0171053635461967
0.0158846417944610
0.0153658350499733
0.0158846417944610
0.0157930876630808
0.0165560387579156
0.0145723659113451
0.0156099794003204
0.0156099794003204
0.0162203402761883
0.0157320515754940
0.0160982681010147
0.0178072785534447
0.0168917372396429
0.0179293507286183
0.0170138094148165
0.0169222552834363
0.0175326161593042
0.0166781109330892
0.0169832913710231
0.0170443274586099
0.0171358815899901
0.0182650492103456
0.0179293507286183
0.0174715800717174
0.0168001831082628
0.0160372320134279
0.0178683146410315
0.0200961318379492
0.0204623483634699
0.0202487220569162
0.0190890363927672
0.0194857709620813
0.0193026626993210
0.0190585183489738
0.0187838559548333
0.0191805905241474
0.0200961318379492
0.0191805905241474
0.0190280003051804
0.0186007476920729
0.0180209048599985
0.0188448920424201
0.0187533379110399
0.0220187685969329
0.0219272144655528
0.0219272144655528
0.0218661783779660
0.0229953459983215
0.0232089723048753
0.0229037918669413
0.0222323949034867
0.0220187685969329
0.0222018768596933
0.0212863355458915
0.0223544670786603
0.0223849851224537
0.0219882505531395
0.0216220340276188
0.0213778896772717
0.0229648279545281
0.0239414053559167
0.0239719233997101
0.0241245136186770
0.0236362249179828
0.0240024414435035
0.0233615625238422
0.0240024414435035
0.0236972610055695
0.0222323949034867
0.0221713588158999
0.0222934309910735
0.0218966964217594
0.0229037918669413
0.0229953459983215
0.0220492866407263
0.0235751888303960
0.0233310444800488
0.0241855497062638
0.0246433203631647
0.0233615625238422
0.0233615625238422
0.0238498512245365
0.0247959105821317
0.0236667429617762
0.0230869001297017
0.0237582970931563
0.0232394903486687
0.0240634775310903
0.0247653925383383
0.0235141527428092
0.0228732738231479
0.0225986114290074
0.0230563820859083
0.0251621271076524
0.0241245136186770
0.0241550316624704
0.0239719233997101
0.0245822842755779
0.0245517662317845
0.0230869001297017
0.0242465857938506
0.0249485008010987
0.0241245136186770
0.0236667429617762
0.0237582970931563
0.0240634775310903
0.0247043564507515
0.0247653925383383
0.0252841992828260
0.0254673075455863
0.0255283436331731
0.0253757534142062
0.0249790188448920
0.0250095368886854
0.0250095368886854
0.0257419699397269
0.0258640421149004
0.0256504158083467
0.0257724879835203
0.0253452353704128
0.0240939955748837
0.0241550316624704
0.0249485008010987
0.0243686579690242
0.0250095368886854
0.0248264286259251
0.0244296940566110
0.0248569466697185
0.0245212481879912
0.0251926451514458
0.0247653925383383
0.0247043564507515
0.0244296940566110
0.0238498512245365
0.0231479362172885
0.0240329594872969
0.0241855497062638
0.0243381399252308
0.0249179827573053
0.0235141527428092
0.0243381399252308
0.0243686579690242
0.0244296940566110
0.0253757534142062
0.0248264286259251
0.0260776684214542
0.0252536812390326
0.0243686579690242
0.0242160677500572
0.0242771038376440
0.0252536812390326
0.0243991760128176
0.0254673075455863
0.0246128023193713
0.0242160677500572
0.0245517662317845
0.0242771038376440
0.0247959105821317
0.0255893797207599
0.0248569466697185
0.0242160677500572
0.0246738384069581
0.0237888151369497
0.0237277790493629
0.0235141527428092
0.0234225986114290
0.0244907301441978
0.0236972610055695
0.0240329594872969
0.0248874647135119
0.0247653925383383
0.0244907301441978
0.0236972610055695
0.0242771038376440
0.0247348744945449
0.0241550316624704
0.0245517662317845
0.0257114518959335
0.0253452353704128
0.0250400549324788
0.0243686579690242
0.0256504158083467
0.0263523308155947
0.0252536812390326
0.0252841992828260
0.0258335240711070
0.0253147173266194
0.0247653925383383
0.0247043564507515
0.0253757534142062
0.0241550316624704
0.0246128023193713
0.0253147173266194
0.0251010910200656
0.0247043564507515
0.0248874647135119
0.0263523308155947
0.0243381399252308
0.0249179827573053
0.0253147173266194
0.0247348744945449
0.0241550316624704
0.0246738384069581
0.0242771038376440
0.0247653925383383
0.0245517662317845
0.0237277790493629
0.0251316090638590
0.0252536812390326
0.0248569466697185
0.0235751888303960
0.0243991760128176
0.0237277790493629
0.0247653925383383
0.0247959105821317
0.0239108873121233
0.0236362249179828
0.0230869001297017
0.0239108873121233
0.0239414053559167
0.0244907301441978
0.0240634775310903
0.0236667429617762
0.0242465857938506
0.0229343099107347
0.0230258640421149
0.0240939955748837
0.0228732738231479
0.0228427557793545
0.0228427557793545
0.0237582970931563
0.0244602121004044
0.0232394903486687
0.0222629129472801
0.0239108873121233
0.0242160677500572
0.0231784542610819
0.0236362249179828
0.0242771038376440
0.0223849851224537
0.0217441062027924
0.0218356603341726
0.0227512016479744
0.0225680933852140
0.0218051422903792
0.0220798046845197
0.0214389257648585
0.0216525520714122
0.0215915159838254
0.0216525520714122
0.0216220340276188
0.0218356603341726
0.0219272144655528
0.0216830701152056
0.0212252994583047
0.0211642633707179
0.0210421911955444
0.0209201190203708
0.0217441062027924
0.0218356603341726
0.0209811551079576
0.0211642633707179
0.0205233844510567
0.0209506370641642
0.0209201190203708
0.0213473716334783
0.0209811551079576
0.0203707942320897
0.0202182040131228
0.0204318303196765
0.0204013122758831
0.0207980468451972
0.0198825055313954
0.0192111085679408
0.0207064927138170
0.0195468070496681
0.0192721446555276
0.0190585183489738
0.0192111085679408
0.0200961318379492
0.0193942168307012
0.0193636987869078
0.0200961318379492
0.0193636987869078
0.0194857709620813
0.0189669642175937
0.0187228198672465
0.0188448920424201
0.0190280003051804
0.0185397116044862
0.0182650492103456
0.0187838559548333
0.0194857709620813
0.0196993972686351
0.0198519874876020
0.0189364461738003
0.0186617837796597
0.0190890363927672
0.0188448920424201
0.0189364461738003
0.0178377965972381
0.0196383611810483
0.0194857709620813
0.0189059281300069
0.0195468070496681
0.0192721446555276
0.0177157244220645
0.0175936522468910
0.0175326161593042
0.0182040131227588
0.0177462424658579
0.0168917372396429
0.0168001831082628
0.0173495078965438
0.0183260852979324
0.0171663996337835
0.0173189898527504
0.0163118944075685
0.0166781109330892
0.0165865568017090
0.0173495078965438
0.0172579537651637
0.0158541237506676
0.0161287861448081
0.0159151598382544
0.0169527733272297
0.0160067139696345
0.0154879072251469
0.0168917372396429
0.0159456778820478
0.0154573891813535
0.0151522087434195
0.0154879072251469
0.0165255207141222
0.0161287861448081
0.0169222552834363
0.0152132448310063
0.0151216906996262
0.0155794613565270
0.0149080643930724
0.0139009689478904
0.0142366674296178
0.0135347524223697
0.0136873426413367
0.0151827267872129
0.0142061493858244
0.0143892576485847
0.0139009689478904
0.0136873426413367
0.0139314869916838
0.0136263065537499
0.0134737163347829
0.0135347524223697
0.0145113298237583
0.0131074998092622
0.0121309224078737
0.0134126802471962
0.0128023193713283
0.0125276569771878
0.0121309224078737
0.0127412832837415
0.0134737163347829
0.0132906080720226
0.0135652704661631
0.0135957885099565
0.0134126802471962
0.0119172961013199
0.0129549095902953
0.0136568245975433
0.0134737163347829
0.0128938735027085
0.00975051499198901
0.00889600976577401
0.00856031128404669
0.00944533455405508
0.00886549172198062
0.00776684214541848
0.00804150453955901
0.00816357671473259
0.00816357671473259
0.00810254062714580
0.00849927519645991
0.00843823910887312
0.00813305867093919
0.00843823910887312
0.00822461280231937
0.00889600976577401
0.00596627756160830
0.00517280842298009
0.00660715648126955
0.00599679560540169
0.00553902494850080
0.00645456626230259
0.00630197604333562
0.00532539864194705
0.00584420538643473
0.00502021820401312
0.00505073624780652
0.00608834973678187
0.00617990386816205
0.00572213321126116
0.00645456626230259
0.00575265125505455
0.00498970016021973
0.00437933928435187
0.00352483405813687
0.00407415884641795
0.00502021820401312
0.00440985732814527
0.00440985732814527
0.00425726710917830
0.00437933928435187
0.00535591668574044
0.00428778515297170
0.00370794232089723
0.00389105058365759
0.00431830319676509
0.00520332646677348
0.00529488059815366
0.00538643472953384
0.00358587014572366
0.00218204013122759
0.00132753490501259
0.00151064316777295
0.00239566643778134
0.00267032883192187
0.00257877470054170
0.00187685969329366
0.00212100404364080
0.00294499122606241
0.00193789578088045
0.00157167925535973
0.00111390859845884
0.00144960708018616
0.00224307621881437
0.00157167925535973
0.000930800335698482
-0.000289921416037232
-0.000625619897764553
-0.00114442664225223
0.000289921416037232
-0.000747692072938125
-0.00102235446707866
-0.00111390859845884
-0.000106813153276875
0.000442511635004196
-0.00114442664225223
-0.000900282291905089
-0.00141908903639277
-0.00102235446707866
7.62951094834821e-05
0.000320439459830625
-4.57770656900893e-05
-0.00205996795605402
-0.00175478751812009
-0.000717174029144732
-0.00193789578088045
-0.00227359426260777
-0.00196841382467384
-0.00209048599984741
-0.00178530556191348
-0.00108339055466545
-0.000839246204318303
-0.00227359426260777
-0.00117494468604562
-0.00102235446707866
-0.00218204013122759
-0.00221255817502098
-0.000717174029144732
-0.00245670252536812
-0.00489814602883955
-0.00370794232089723
-0.00386053253986420
-0.00416571297779812
-0.00370794232089723
-0.00349431601434348
-0.00468451972228580
-0.00444037537193866
-0.00364690623331045
-0.00355535210193027
-0.00337224383916991
-0.00401312275883116
-0.00395208667124437
-0.00364690623331045
-0.00392156862745098
-0.00538643472953384
-0.00669871061264973
-0.00621042191195544
-0.00703440909437705
-0.00602731364919509
-0.00550850690470741
-0.00621042191195544
-0.00636301213092241
-0.00630197604333562
-0.00660715648126955
-0.00688181887541009
-0.00679026474402991
-0.00669871061264973
-0.00688181887541009
-0.00688181887541009
-0.00672922865644312
-0.00663767452506294
-0.00874341954680705
-0.00904859998474098
-0.00834668497749294
-0.00804150453955901
-0.00804150453955901
-0.00959792477302205
-0.00868238345922026
-0.00862134737163348
-0.00941481651026169
-0.00782787823300526
-0.00892652780956741
-0.00849927519645991
-0.00910963607232776
-0.00868238345922026
-0.00871290150301366
-0.00923170824750134
-0.00971999694819562
-0.0115205615320058
-0.0102693217364767
-0.0107881284809644
-0.0110933089188983
-0.0101777676050965
-0.00996414129854276
-0.0102388036926833
-0.0108491645685512
-0.0107881284809644
-0.0114900434882124
-0.0111848630502785
-0.0103608758678569
-0.0114900434882124
-0.0112458991378653
-0.0106660563057908
-0.0121004043640803
-0.0138704509040970
-0.0135652704661631
-0.0136263065537499
-0.0128633554589151
-0.0133821622034028
-0.0142061493858244
-0.0141145952544442
-0.0128023193713283
-0.0134431982909895
-0.0134431982909895
-0.0121614404516670
-0.0128633554589151
-0.0122835126268406
-0.0124666208896010
-0.0131685358968490
-0.0135042343785763
-0.0129549095902953
-0.0133211261158160
-0.0139314869916838
-0.0137178606851301
-0.0124055848020142
-0.0137788967727169
-0.0131685358968490
-0.0122529945830472
-0.0127107652399481
-0.0135347524223697
-0.0135957885099565
-0.0127718013275349
-0.0130769817654688
-0.0120393682764935
-0.0135347524223697
-0.0137788967727169
-0.0135957885099565
-0.0138094148165103
-0.0139925230792706
-0.0139009689478904
-0.0139009689478904
-0.0139620050354772
-0.0137483787289235
-0.0147554741741054
-0.0149691004806592
-0.0141756313420310
-0.0132600900282292
-0.0143282215609979
-0.0146639200427253
-0.0146639200427253
-0.0143892576485847
-0.0136873426413367
-0.0144502937361715
-0.0142061493858244
-0.0145418478675517
-0.0138704509040970
-0.0131380178530556
-0.0149691004806592
-0.0139314869916838
-0.0130159456778820
-0.0137788967727169
-0.0135042343785763
-0.0139009689478904
-0.0136263065537499
-0.0139620050354772
-0.0148165102616922
-0.0136873426413367
-0.0136568245975433
-0.0133821622034028
-0.0138704509040970
-0.0143282215609979
-0.0146334019989319
-0.0145723659113451
-0.0131685358968490
-0.0136263065537499
-0.0144197756923781
-0.0138094148165103
-0.0129549095902953
-0.0138704509040970
-0.0141145952544442
-0.0136873426413367
-0.0132600900282292
-0.0135652704661631
-0.0139009689478904
-0.0143892576485847
-0.0139925230792706
-0.0135042343785763
-0.0142977035172045
-0.0133821622034028
-0.0139009689478904
-0.0138704509040970
-0.0130769817654688
-0.0133211261158160
-0.0141451132982376
-0.0135347524223697
-0.0134126802471962
-0.0133211261158160
-0.0129549095902953
-0.0141145952544442
-0.0144502937361715
-0.0140230411230640
-0.0138704509040970
-0.0133211261158160
-0.0138094148165103
-0.0138399328603037
-0.0127412832837415
-0.0126497291523613
-0.0129549095902953
-0.0130769817654688
-0.0141145952544442
-0.0133516441596094
-0.0127718013275349
-0.0141451132982376
-0.0129854276340887
-0.0129549095902953
-0.0124055848020142
-0.0135347524223697
-0.0142977035172045
-0.0144808117799649
-0.0144197756923781
-0.0140840772106508
-0.0148470283054856
-0.0144197756923781
-0.0137178606851301
-0.0149996185244526
-0.0145113298237583
-0.0145418478675517
-0.0144197756923781
-0.0136873426413367
-0.0139314869916838
-0.0135347524223697
-0.0153658350499733
-0.0140840772106508
-0.0146028839551385
-0.0148470283054856
-0.0142061493858244
-0.0149080643930724
-0.0139009689478904
-0.0139620050354772
-0.0144502937361715
-0.0149080643930724
-0.0146639200427253
-0.0153658350499733
-0.0148165102616922
-0.0145113298237583
-0.0137788967727169
-0.0142671854734112
-0.0150606546120394
-0.0141451132982376
-0.0146639200427253
-0.0140535591668574
-0.0151216906996262
-0.0143282215609979
-0.0144808117799649
-0.0146334019989319
-0.0142671854734112
-0.0141451132982376
-0.0142977035172045
-0.0134126802471962
-0.0130464637216754
-0.0138399328603037
-0.0146028839551385
-0.0143282215609979
-0.0141756313420310
-0.0135347524223697
-0.0126802471961547
-0.0135957885099565
-0.0143587396047913
-0.0150911726558328
-0.0141145952544442
-0.0139009689478904
-0.0139314869916838
-0.0136873426413367
-0.0139009689478904
-0.0131074998092622
-0.0142977035172045
-0.0137788967727169
-0.0139925230792706
-0.0128023193713283
-0.0138094148165103
-0.0143892576485847
-0.0128328374151217
-0.0134431982909895
-0.0147554741741054
-0.0142977035172045
-0.0130769817654688
-0.0141756313420310
-0.0132906080720226
-0.0141145952544442
-0.0141756313420310
-0.0128023193713283
-0.0134126802471962
-0.0129854276340887
-0.0136263065537499
-0.0144197756923781
-0.0138399328603037
-0.0128328374151217
-0.0134431982909895
-0.0135652704661631
-0.0137483787289235
-0.0130769817654688
-0.0139925230792706
-0.0138704509040970
-0.0133516441596094
-0.0149385824368658
-0.0141451132982376
-0.0144808117799649
-0.0139620050354772
-0.0145418478675517
-0.0134737163347829
-0.0128633554589151
-0.0135042343785763
-0.0133516441596094
-0.0138704509040970
-0.0129854276340887
-0.0136873426413367
-0.0127412832837415
-0.0124055848020142
-0.0128633554589151
-0.0139314869916838
-0.0141756313420310
-0.0133516441596094
-0.0137483787289235
-0.0145113298237583
-0.0129854276340887
-0.0125581750209812
-0.0135042343785763
-0.0139314869916838
-0.0126192111085679
-0.0128938735027085
-0.0136873426413367
-0.0132600900282292
-0.0138094148165103
-0.0136263065537499
-0.0133821622034028
-0.0129549095902953
-0.0136263065537499
-0.0146639200427253
-0.0142671854734112
-0.0131990539406424
-0.0142671854734112
-0.0141451132982376
-0.0132295719844358
-0.0137483787289235
-0.0127412832837415
-0.0132600900282292
-0.0138704509040970
-0.0131074998092622
-0.0136263065537499
-0.0139620050354772
-0.0135652704661631
-0.0134737163347829
-0.0135347524223697
-0.0133211261158160
-0.0125581750209812
-0.0130769817654688
-0.0133516441596094
-0.0128938735027085
-0.0131685358968490
-0.0125581750209812
-0.0129854276340887
-0.0132600900282292
-0.0118867780575265
-0.0114900434882124
-0.0127412832837415
-0.0124971389333944
-0.0122529945830472
-0.0132906080720226
-0.0128023193713283
-0.0127718013275349
-0.0131074998092622
-0.0123750667582208
-0.0133516441596094
-0.0131074998092622
-0.0129243915465019
-0.0134431982909895
-0.0130464637216754
-0.0133516441596094
-0.0129549095902953
-0.0134126802471962
-0.0136263065537499
-0.0120393682764935
-0.0130464637216754
-0.0124971389333944
-0.0128023193713283
-0.0127107652399481
-0.0125581750209812
-0.0128938735027085
-0.0131990539406424
-0.0131685358968490
-0.0116121156633860
-0.0123445487144274
-0.0131990539406424
-0.0120698863202869
-0.0108796826123445
-0.0119783321889067
-0.0119783321889067
-0.0118867780575265
-0.0111238269626917
-0.0124361028458076
-0.0119478141451133
-0.0124361028458076
-0.0118867780575265
-0.0109102006561379
-0.0120088502327001
-0.0110017547875181
-0.0117952239261463
-0.0114290074006256
-0.0114900434882124
-0.0124971389333944
-0.0130769817654688
-0.0130464637216754
-0.0121919584954604
-0.0121614404516670
-0.0124666208896010
-0.0126802471961547
-0.0115510795757992
-0.0120698863202869
-0.0123750667582208
-0.0124971389333944
-0.0122835126268406
-0.0121919584954604
-0.0121309224078737
-0.0109712367437247
-0.0118867780575265
-0.0122224765392538
-0.0102693217364767
-0.0112458991378653
-0.0116426337071794
-0.0111543450064851
-0.0119783321889067
-0.0111543450064851
-0.0108796826123445
-0.0106050202182040
-0.0109712367437247
-0.0112764171816587
-0.0119478141451133
-0.0121614404516670
-0.0125886930647745
-0.0117036697947662
-0.0115510795757992
-0.0119172961013199
-0.0100556954299229
-0.0107576104371710
-0.0110933089188983
-0.0121919584954604
-0.0123750667582208
-0.0111543450064851
-0.0117036697947662
-0.0122224765392538
-0.0110017547875181
-0.0116731517509728
-0.0113984893568322
-0.0114595254444190
-0.0112153810940719
-0.0114290074006256
-0.0115510795757992
-0.0120698863202869
-0.0114595254444190
-0.0115205615320058
-0.0114900434882124
-0.0114595254444190
-0.0118867780575265
-0.0107576104371710
-0.0118562600137331
-0.0108491645685512
-0.0117036697947662
-0.0110322728313115
-0.0104219119554437
-0.0110322728313115
-0.00990310521095598
-0.0117036697947662
-0.0107576104371710
-0.0113374532692454
-0.0114290074006256
-0.0120088502327001
-0.0114290074006256
-0.0103303578240635
-0.0107881284809644
-0.0113069352254520
-0.0108491645685512
-0.0102388036926833
-0.0116121156633860
-0.0112764171816587
-0.0115205615320058
-0.0116731517509728
-0.0118867780575265
-0.0113069352254520
-0.0110933089188983
-0.0112153810940719
-0.0111238269626917
-0.0111848630502785
-0.0103608758678569
-0.0108186465247578
-0.0113679713130388
-0.0115205615320058
-0.0117341878385595
-0.0108186465247578
-0.0106355382619974
-0.0114290074006256
-0.0100251773861296
-0.0105745021744106
-0.0106965743495842
-0.0109712367437247
-0.0114290074006256
-0.0106355382619974
-0.0111543450064851
-0.0118257419699397
-0.0118867780575265
-0.0108186465247578
-0.0115205615320058
-0.0114595254444190
-0.0109407186999313
-0.0106355382619974
-0.0108796826123445
-0.0102693217364767
-0.0100556954299229
-0.00993362325474937
-0.0104524299992370
-0.0110322728313115
-0.0113374532692454
-0.0108491645685512
-0.00987258716716258
-0.00996414129854276
-0.00984206912336919
-0.0101472495613031
-0.00984206912336919
-0.0109102006561379
-0.0109712367437247
-0.0101777676050965
-0.0101472495613031
-0.00990310521095598
-0.00999465934233616
-0.0104829480430304
-0.0101167315175097
-0.0106660563057908
-0.0113374532692454
-0.00920119020370794
-0.0100251773861296
-0.0111543450064851
-0.00968947890440223
-0.00929274433508812
-0.00953688868543526
-0.00965896086060884
-0.00971999694819562
-0.00892652780956741
-0.0100556954299229
-0.0109407186999313
-0.00904859998474098
-0.0102388036926833
-0.0100556954299229
-0.0104524299992370
-0.0100251773861296
-0.0100251773861296
-0.00984206912336919
-0.00978103303578241
-0.0100556954299229
-0.00975051499198901
-0.0104524299992370
-0.0106355382619974
-0.0101472495613031
-0.00904859998474098
-0.00904859998474098
-0.00941481651026169
-0.0107881284809644
-0.0105745021744106
-0.0102998397802701
-0.0107270923933776
-0.0104829480430304
-0.00978103303578241
-0.00965896086060884
-0.0104524299992370
-0.00920119020370794
-0.00981155107957580
-0.0104524299992370
-0.0105134660868238
-0.0103608758678569
-0.00999465934233616
-0.00990310521095598
-0.00938429846646830
-0.00852979324025330
-0.00874341954680705
-0.00965896086060884
-0.00895704585336080
-0.00953688868543526
-0.00926222629129473
-0.00978103303578241
-0.00935378042267491
-0.00901808194094758
-0.00965896086060884
-0.00932326237888151
-0.00840772106507973
-0.00901808194094758
-0.0100556954299229
-0.00944533455405508
-0.00901808194094758
-0.0102082856488899
-0.00978103303578241
-0.00868238345922026
-0.00877393759060044
-0.00962844281681544
-0.0102998397802701
-0.00917067215991455
-0.00941481651026169
-0.00825513084611276
-0.00877393759060044
-0.00910963607232776
-0.00886549172198062
-0.00950637064164187
-0.00852979324025330
-0.00929274433508812
-0.00828564888990616
-0.00904859998474098
-0.0102082856488899
-0.00987258716716258
-0.00968947890440223
-0.00923170824750134
-0.00965896086060884
-0.00990310521095598
-0.00956740672922866
-0.00822461280231937
-0.00849927519645991
-0.00971999694819562
-0.00990310521095598
-0.00926222629129473
-0.00788891432059205
-0.00834668497749294
-0.00889600976577401
-0.00877393759060044
-0.00822461280231937
-0.00907911802853437
-0.00907911802853437
-0.00938429846646830
-0.00987258716716258
-0.00926222629129473
-0.00950637064164187
-0.00849927519645991
-0.00938429846646830
-0.00843823910887312
-0.00929274433508812
-0.00999465934233616
-0.00883497367818723
-0.00926222629129473
-0.0101777676050965
-0.00926222629129473
-0.00901808194094758
-0.00932326237888151
-0.00862134737163348
-0.00862134737163348
-0.00862134737163348
-0.00971999694819562
-0.00901808194094758
-0.00788891432059205
-0.00825513084611276
-0.00877393759060044
-0.00895704585336080
-0.00920119020370794
-0.00868238345922026
-0.00898756389715419
-0.00932326237888151
-0.00825513084611276
-0.00825513084611276
-0.00819409475852598
-0.00770580605783169
-0.00807202258335241
-0.00733958953231098
-0.00862134737163348
-0.00959792477302205
-0.00926222629129473
-0.00859082932784009
-0.00965896086060884
-0.00849927519645991
-0.00895704585336080
-0.00907911802853437
-0.00947585259784848
-0.00975051499198901
-0.00825513084611276
-0.00941481651026169
-0.00822461280231937
-0.00773632410162509
-0.00852979324025330
-0.00910963607232776
-0.00868238345922026
-0.00886549172198062
-0.00883497367818723
-0.00883497367818723
-0.00788891432059205
-0.00871290150301366
-0.00950637064164187
-0.00920119020370794
-0.00926222629129473
-0.00840772106507973
-0.00859082932784009
-0.00740062561989776
-0.00852979324025330
-0.00840772106507973
-0.00801098649576562
-0.00904859998474098
-0.00767528801403830
-0.00813305867093919
-0.00801098649576562
-0.00819409475852598
-0.00761425192645151
-0.00852979324025330
-0.00804150453955901
-0.00843823910887312
-0.00828564888990616
-0.00758373388265812
-0.00810254062714580
-0.00883497367818723
-0.00914015411612116
-0.00758373388265812
-0.00691233691920348
-0.00822461280231937
-0.00807202258335241
-0.00791943236438544
-0.00834668497749294
-0.00743114366369116
-0.00852979324025330
-0.00770580605783169
-0.00804150453955901
-0.00712596322575723
-0.00746166170748455
-0.00840772106507973
-0.00798046845197223
-0.00788891432059205
-0.00819409475852598
-0.00856031128404669
-0.00740062561989776
-0.00740062561989776
-0.00831616693369955
-0.00767528801403830
-0.00770580605783169
-0.00862134737163348
-0.00859082932784009
-0.00791943236438544
-0.00859082932784009
-0.00804150453955901
-0.00852979324025330
-0.00871290150301366
-0.00801098649576562
-0.00834668497749294
-0.00740062561989776
-0.00773632410162509
-0.00761425192645151
-0.00694285496299687
-0.00700389105058366
-0.00856031128404669
-0.00914015411612116
-0.00859082932784009
-0.00825513084611276
-0.00773632410162509
-0.00807202258335241
-0.00807202258335241
-0.00709544518196384
-0.00721751735713741
-0.00837720302128634
-0.00871290150301366
-0.00758373388265812
-0.00679026474402991
-0.00718699931334402
-0.00740062561989776
-0.00804150453955901
-0.00801098649576562
-0.00715648126955062
-0.00685130083161669
-0.00810254062714580
-0.00779736018921187
-0.00773632410162509
-0.00819409475852598
-0.00831616693369955
-0.00889600976577401
-0.00840772106507973
-0.00733958953231098
-0.00685130083161669
-0.00749217975127794
-0.00721751735713741
-0.00776684214541848
-0.00843823910887312
-0.00779736018921187
-0.00843823910887312
-0.00831616693369955
-0.00733958953231098
-0.00740062561989776
-0.00782787823300526
-0.00804150453955901
-0.00871290150301366
-0.00849927519645991
-0.00837720302128634
-0.00840772106507973
-0.00843823910887312
-0.00794995040817884
-0.00901808194094758
-0.0127718013275349
-0.0121309224078737
-0.0119478141451133
-0.0132906080720226
-0.0130159456778820
-0.0133516441596094
-0.0137483787289235
-0.0132906080720226
-0.0132906080720226
-0.0129243915465019
-0.0118562600137331
-0.0120698863202869
-0.0129854276340887
-0.0125886930647745
-0.0121614404516670
-0.0119172961013199
-0.0161593041886015
-0.0172274357213703
-0.0167086289768826
-0.0175326161593042
-0.0170138094148165
-0.0175326161593042
-0.0166170748455024
-0.0167086289768826
-0.0171358815899901
-0.0173495078965438
-0.0166781109330892
-0.0170138094148165
-0.0182345311665522
-0.0172579537651637
-0.0175631342030976
-0.0158846417944610
-0.0186617837796597
-0.0222018768596933
-0.0212558175020981
-0.0222323949034867
-0.0218966964217594
-0.0210421911955444
-0.0211337453269245
-0.0212863355458915
-0.0201571679255360
-0.0212558175020981
-0.0209811551079576
-0.0206454566262303
-0.0219272144655528
-0.0204928664072633
-0.0207064927138170
-0.0215915159838254
-0.0210116731517510
-0.0255283436331731
-0.0263523308155947
-0.0253452353704128
-0.0268711375600824
-0.0264438849469749
-0.0265354390783551
-0.0257114518959335
-0.0255893797207599
-0.0247348744945449
-0.0260471503776608
-0.0262302586404212
-0.0260471503776608
-0.0251926451514458
-0.0259250782024872
-0.0235751888303960
-0.0274204623483635
-0.0164034485389487
-0.00532539864194705
-0.00837720302128634
-0.00679026474402991
-0.00865186541542687
-0.00767528801403830
-0.00703440909437705
-0.00776684214541848
-0.00770580605783169
-0.00700389105058366
-0.00794995040817884
-0.00697337300679027
-0.00755321583886473
-0.00730907148851759
-0.00611886778057527
-0.00733958953231098
-0.00547798886091402
0.00602731364919509
0.00810254062714580
0.00645456626230259
0.00621042191195544
0.00761425192645151
0.00724803540093080
0.00712596322575723
0.00752269779507134
0.00596627756160830
0.00688181887541009
0.00712596322575723
0.00636301213092241
0.00749217975127794
0.00715648126955062
0.00694285496299687
0.00544747081712062
0.0158846417944610
0.0238193331807431
0.0222629129472801
0.0222018768596933
0.0225070572976272
0.0233615625238422
0.0215915159838254
0.0220492866407263
0.0222629129472801
0.0223544670786603
0.0224460212100404
0.0224155031662470
0.0235446707866026
0.0228732738231479
0.0226596475165942
0.0213778896772717
0.0254673075455863
0.0378576333257038
0.0368200198367285
0.0366979476615549
0.0364538033112078
0.0354772259098192
0.0359044785229267
0.0362401770046540
0.0371862363622492
0.0359044785229267
0.0366979476615549
0.0357213702601663
0.0353246356908522
0.0358129243915465
0.0353551537346456
0.0365148393987945
0.0364843213550012
0.0489967193102922
0.0530251010910201
0.0504310673685817
0.0512550545510033
0.0506141756313420
0.0516823071641108
0.0507667658503090
0.0509498741130694
0.0509803921568627
0.0506446936751354
0.0507057297627222
0.0505226214999619
0.0511024643320363
0.0496375982299535
0.0511940184634165
0.0498512245365072
0.0559853513389792
0.0658426794842451
0.0643778133821622
0.0652628366521706
0.0646829938200961
0.0634927901121538
0.0648355840390631
0.0648661020828565
0.0645609216449226
0.0652628366521706
0.0656595712214847
0.0649271381704433
0.0650492103456169
0.0638895246814679
0.0641947051194018
0.0634622720683604
0.0654764629587244
0.0790264744029908
0.0791180285343709
0.0782940413519493
0.0786297398336767
0.0781109330891890
0.0793621728847181
0.0785381857022965
0.0787518120088502
0.0786297398336767
0.0786602578774701
0.0788433661402304
0.0781109330891890
0.0776531624322881
0.0771038376440070
0.0781719691767758
0.0759746700236515
0.0857709620813306
0.0933699549858854
0.0920576791027695
0.0929121843289845
0.0916304264896620
0.0917830167086290
0.0916914625772488
0.0912336919203479
0.0906233310444801
0.0911726558327611
0.0905622949568933
0.0901655603875792
0.0914168001831083
0.0906233310444801
0.0916304264896620
0.0901655603875792
0.0940413519493401
0.106157015335317
0.105363546196689
0.105149919890135
0.103929198138399
0.104692149233234
0.105699244678416
0.105333028152895
0.104570077058061
0.104234378576333
0.103807125963226
0.102830548561837
0.104264896620127
0.104722667277028
0.104142824444953
0.104417486839094
0.102830548561837
0.114579995422293
0.119005111772335
0.116502632181277
0.117326619363699
0.117723353933013
0.117235065232319
0.116960402838178
0.117906462195773
0.117143511100938
0.117082475013352
0.118150606546120
0.117051956969558
0.116289005874723
0.116716258487831
0.117662317845426
0.115098802166781
0.120775158312352
0.132219424734875
0.131242847333486
0.131242847333486
0.130907148851759
0.130663004501411
0.130540932326238
0.129930571450370
0.129686427100023
0.128984512092775
0.129076066224155
0.129777981231403
0.128496223392081
0.129381246662089
0.128252079041733
0.128221560997940
0.129411764705882
0.142046234836347
0.145281147478447
0.144029907682918
0.145128557259480
0.142534523537041
0.142748149843595
0.142412451361868
0.142900740062562
0.143175402456703
0.141863126573587
0.142717631799802
0.142076752880140
0.141496910048066
0.140825513084611
0.141863126573587
0.140184634164950
0.148729686427100
0.156298161287861
0.153734645609216
0.155657282368200
0.154253452353704
0.154070344090944
0.154345006485084
0.154009308003357
0.153215838864729
0.153887235828183
0.153765163653010
0.152422369726101
0.153734645609216
0.152178225375753
0.152239261463340
0.150621805142290
0.154802777141985
0.167895017929351
0.166887922484169
0.167406729228656
0.166033417257954
0.165941863126574
0.166033417257954
0.166430151827268
0.165819790951400
0.164354924849317
0.164843213550011
0.164385442893111
0.165178912031739
0.164446478980697
0.164934767681392
0.164812695506218
0.162615396353094
0.174090180819409
0.180102235446708
0.178240634775311
0.179369802395666
0.178149080643931
0.177355611505303
0.175951781490806
0.176775768673228
0.176256961928740
0.175555046921492
0.175951781490806
0.174944686045624
0.176409552147707
0.174120698863203
0.175310902571145
0.172899977111467
0.179766536964981
0.191973754482338
0.190630960555428
0.190264744029908
0.189349202716106
0.189257648584726
0.188464179446098
0.188769359884031
0.188067444876783
0.187548638132296
0.188525215533684
0.186694132906081
0.186816205081254
0.188128480964370
0.186694132906081
0.187151903562982
0.186816205081254
0.197863736934463
0.201342793926909
0.199908445868620
0.199481193255512
0.198779278248264
0.198748760204471
0.198321507591363
0.198718242160678
0.198138399328603
0.198840314335851
0.198474097810330
0.197955291065843
0.197894254978256
0.195727473868925
0.196643015182727
0.193957427328908
0.202410925459678
0.211627374685283
0.209552147707332
0.209948882276646
0.208636606393530
0.208545052262150
0.208209353780423
0.208300907911803
0.207843137254902
0.207507438773175
0.206439307240406
0.206195162890059
0.206927595941100
0.205249103532464
0.205828946364538
0.204242008087282
0.207751583123522
0.220874341954681
0.219897764553292
0.220630197604334
0.220904859998474
0.219104295414664
0.219195849546044
0.219409475852598
0.218280308232242
0.217730983443961
0.218738078889143
0.218249790188449
0.218005645838102
0.217181658655680
0.216845960173953
0.216510261692226
0.218005645838102
0.204425116350042
0.197314412146181
0.199725337605859
0.198901350423438
0.199114976729992
0.197497520408942
0.196826123445487
0.197497520408942
0.198199435416190
0.197558556496529
0.195666437781338
0.195696955825132
0.194689860379950
0.195483329518578
0.193987945372702
0.195849546044099
0.189288166628519
0.176379034103914
0.178332188906691
0.176989394979782
0.177630273899443
0.175768673228046
0.175951781490806
0.176348516060121
0.175677119096666
0.175280384527352
0.174975204089418
0.174425879301137
0.174578469520104
0.175280384527352
0.173754482337682
0.173479819943542
0.173144121461814
0.159411001754788
0.155046921492332
0.155474174105440
0.154924849317159
0.155779354543374
0.155443656061646
0.156328679331655
0.154650186923018
0.154009308003357
0.153795681696803
0.154375524528878
0.153948271915770
0.152513923857481
0.154345006485084
0.151537346456092
0.154070344090944
0.144426642252232
0.133379110399023
0.136614023041123
0.134752422369726
0.135301747158007
0.135332265201801
0.134355687800412
0.134203097581445
0.134416723887999
0.135088120851453
0.133257038223850
0.134111543450065
0.134325169756619
0.133562218661784
0.132677195391775
0.134081025406271
0.131212329289693
0.116350041962310
0.115190356298161
0.116044861524376
0.115129320210575
0.115556572823682
0.114763103685054
0.114976729991608
0.114396887159533
0.113542381933318
0.113511863889525
0.113023575188830
0.113389791714351
0.113267719539178
0.113237201495384
0.112169069962615
0.113237201495384
0.101213092240787
0.0944686045624475
0.0962996871900511
0.0948958571755550
0.0953841458762493
0.0958113984893568
0.0958419165331502
0.0946517128252079
0.0946517128252079
0.0951400015259022
0.0952620737010758
0.0953231097886625
0.0948043030441749
0.0937361715114061
0.0929732204165713
0.0954451819638361
0.0877851529716945
0.0753337911039902
0.0770122835126268
0.0767071030746929
0.0767071030746929
0.0764019226367590
0.0750286106660563
0.0755779354543374
0.0759136339360647
0.0764019226367590
0.0752422369726101
0.0750591287098497
0.0754863813229572
0.0745403219653620
0.0746318760967422
0.0734111543450065
0.0738994430457008
0.0597085526817731
0.0562905317769131
0.0572976272220951
0.0561684596017395
0.0566872663462272
0.0566262302586404
0.0571145189593347
0.0564126039520867
0.0565041580834669
0.0574807354848554
0.0569008926527810
0.0562905317769131
0.0559243152513924
0.0559243152513924
0.0554055085069047
0.0574196993972686
0.0478675516899367
0.0387426565957122
0.0403601129167620
0.0397497520408942
0.0401770046540017
0.0387731746395056
0.0402685587853819
0.0392004272526131
0.0391699092088197
0.0386816205081254
0.0392614633401999
0.0395056076905470
0.0382543678950179
0.0386511024643320
0.0380102235446708
0.0392614633401999
0.0360265506981003
0.0222323949034867
0.0207064927138170
0.0216525520714122
0.0230258640421149
0.0220492866407263
0.0222629129472801
0.0232394903486687
0.0230258640421149
0.0228732738231479
0.0220492866407263
0.0218661783779660
0.0223544670786603
0.0216525520714122
0.0223544670786603
0.0212558175020981
0.0222323949034867
0.0105745021744106
0.00312809948882277
0.00532539864194705
0.00486762798504616
0.00560006103608759
0.00465400167849241
0.00529488059815366
0.00453192950331884
0.00505073624780652
0.00514229037918669
0.00553902494850080
0.00550850690470741
0.00505073624780652
0.00575265125505455
0.00419623102159152
0.00526436255436027
-0.00175478751812009
-0.0137483787289235
-0.0128328374151217
-0.0131990539406424
-0.0122529945830472
-0.0126802471961547
-0.0132906080720226
-0.0121919584954604
-0.0117341878385595
-0.0122529945830472
-0.0126497291523613
-0.0128938735027085
-0.0120698863202869
-0.0124361028458076
-0.0128023193713283
-0.0128938735027085
-0.0125886930647745
-0.0262912947280079
-0.0305027847714961
-0.0289158464942397
-0.0306248569466697
-0.0283970397497520
-0.0292820630197604
-0.0298924238956283
-0.0306553749904631
-0.0298008697642481
-0.0304112306401160
-0.0295567254139010
-0.0286411841000992
-0.0298313878080415
-0.0291294728007935
-0.0299839780270085
-0.0276951247425040
-0.0382848859388113
-0.0472266727702754
-0.0457618066681926
-0.0473182269016556
-0.0457007705806058
-0.0458228427557794
-0.0464026855878538
-0.0469520103761349
-0.0457312886243992
-0.0457923247119860
-0.0462500953688869
-0.0453345540550851
-0.0470130464637217
-0.0462500953688869
-0.0466773479819944
-0.0460059510185397
-0.0485084306095979
-0.0623025864042115
-0.0629129472800794
-0.0615091172655833
-0.0619058518348974
-0.0624246585793851
-0.0626382848859388
-0.0619974059662776
-0.0623025864042115
-0.0627603570611124
-0.0621194781414511
-0.0626688029297322
-0.0631876096742199
-0.0623941405355917
-0.0626993209735256
-0.0624246585793851
-0.0619974059662776
-0.0734721904325933
-0.0800030518043793
-0.0781414511329824
-0.0780193789578088
-0.0779888609140154
-0.0791485465781643
-0.0785992217898833
-0.0789654383154040
-0.0777141985198749
-0.0777141985198749
-0.0782330052643626
-0.0784161135271229
-0.0789959563591974
-0.0760051880674449
-0.0775005722133211
-0.0755474174105440
-0.0848859388113222
-0.0981307698176547
-0.0962386511024643
-0.0966659037155718
-0.0961165789272908
-0.0963607232776379
-0.0950789654383154
-0.0960250247959106
-0.0970626382848859
-0.0948348210879683
-0.0954757000076295
-0.0958113984893568
-0.0950789654383154
-0.0957503624017701
-0.0954451819638361
-0.0951400015259022
-0.0957503624017701
-0.112199588006409
-0.115678644998856
-0.114274814984360
-0.114030670634012
-0.113511863889525
-0.115068284122988
-0.114152742809186
-0.113267719539178
-0.111985961699855
-0.113664454108492
-0.112016479743648
-0.112993057145037
-0.112077515831235
-0.112321660181582
-0.112413214312963
-0.112870984969863
-0.109971770809491
-0.106523231860838
-0.107621881437400
-0.106340123598077
-0.107774471656367
-0.106736858167391
-0.106919966430152
-0.106401159685664
-0.106279087510491
-0.106889448386358
-0.106553749904631
-0.107011520561532
-0.106370641641871
-0.106431677729458
-0.104661631189441
-0.104997329671168
-0.104722667277028
-0.100236514839399
-0.100999465934234
-0.100480659189746
-0.100968947890440
-0.0994735637445640
-0.0989852750438697
-0.0997787441824979
-0.0990768291752499
-0.0994125276569772
-0.0981612878614481
-0.0992294193942168
-0.0989242389562829
-0.0992599374380102
-0.0995956359197376
-0.0984969863431754
-0.0991683833066300
-0.0950789654383154
-0.0930342565041581
-0.0934920271610590
-0.0925764858472572
-0.0930342565041581
-0.0926985580224308
-0.0933699549858854
-0.0934004730296788
-0.0931258106355383
-0.0929427023727779
-0.0918440527962158
-0.0921797512779431
-0.0926375219348440
-0.0917830167086290
-0.0920271610589761
-0.0923018234531167
-0.0900740062561990
-0.0871442740520333
-0.0860151064316777
-0.0866559853513390
-0.0873884184023804
-0.0872358281834134
-0.0868085755703059
-0.0869001297016861
-0.0869001297016861
-0.0869611657892729
-0.0861982146944381
-0.0850690470740826
-0.0850690470740826
-0.0847028305485618
-0.0847028305485618
-0.0851911192492561
-0.0854657816433967
-0.0810711833371481
-0.0803387502861067
-0.0804913405050736
-0.0793316548409247
-0.0795147631036851
-0.0801251239795529
-0.0795147631036851
-0.0787518120088502
-0.0793621728847181
-0.0787212939650568
-0.0785992217898833
-0.0791180285343709
-0.0789654383154040
-0.0800335698481727
-0.0787518120088502
-0.0803082322423133
-0.0768291752498665
-0.0724650949874113
-0.0743572137026017
-0.0746013580529488
-0.0740825513084611
-0.0727397573815519
-0.0736247806515602
-0.0738384069581140
-0.0741741054398413
-0.0741130693522545
-0.0730144197756924
-0.0730449378194858
-0.0737468528267338
-0.0742046234836347
-0.0732280460822461
-0.0728007934691386
-0.0731059739070726
-0.0684672312504769
-0.0675822079804685
-0.0684977492942702
-0.0679789425497826
-0.0677042801556420
-0.0683756771190967
-0.0679484245059892
-0.0674296177615015
-0.0674296177615015
-0.0668497749294270
-0.0664225223163195
-0.0678568703746090
-0.0667582207980468
-0.0673380636301213
-0.0672159914549477
-0.0664835584039063
-0.0639505607690547
-0.0609597924773022
-0.0627603570611124
-0.0615091172655833
-0.0619668879224842
-0.0619058518348974
-0.0619668879224842
-0.0615396353093767
-0.0620584420538644
-0.0617532616159304
-0.0609597924773022
-0.0618448157473106
-0.0622415503166247
-0.0619058518348974
-0.0613260090028229
-0.0617227435721370
-0.0605935759517815
-0.0615396353093767
-0.0615091172655833
-0.0606546120393683
-0.0601052872510872
-0.0611429007400626
-0.0613870450904097
-0.0600137331197070
-0.0608072022583352
-0.0605020218204013
-0.0610208285648890
-0.0607156481269551
-0.0598306248569467
-0.0609597924773022
-0.0601358052948806
-0.0601358052948806
-0.0610513466086824
-0.0594033722438392
-0.0600137331197070
-0.0601052872510872
-0.0603799496452277
-0.0599221789883269
-0.0602273594262608
-0.0605935759517815
-0.0602578774700542
-0.0598611429007401
-0.0601052872510872
-0.0606546120393683
-0.0593118181124590
-0.0598916609445335
-0.0602578774700542
-0.0599832150759136
-0.0595254444190127
-0.0587624933241779
-0.0601358052948806
-0.0598611429007401
-0.0601968413824674
-0.0590676737621119
-0.0594644083314260
-0.0598306248569467
-0.0597085526817731
-0.0594949263752193
-0.0592202639810788
-0.0581826504921035
-0.0585183489738308
-0.0590676737621119
-0.0584267948424506
-0.0585183489738308
-0.0582131685358969
-0.0587930113679713
-0.0590066376745251
-0.0586404211490044
-0.0572976272220951
-0.0573891813534752
-0.0575722896162356
-0.0571145189593347
-0.0574196993972686
-0.0579079880979629
-0.0582131685358969
-0.0573281452658885
-0.0572060730907149
-0.0569314106965744
-0.0565346761272602
-0.0569619287403677
-0.0563515678644999
-0.0567788204776074
-0.0563515678644999
-0.0569619287403677
-0.0570840009155413
-0.0564736400396735
-0.0573891813534752
-0.0565651941710536
-0.0559548332951858
-0.0556496528572519
-0.0565651941710536
-0.0569008926527810
-0.0555886167696651
-0.0561989776455329
-0.0563210498207065
-0.0561074235141527
-0.0557412069886320
-0.0565651941710536
-0.0557106889448386
-0.0546120393682765
-0.0549782558937972
-0.0555580987258717
-0.0548867017624170
-0.0553749904631113
-0.0559243152513924
-0.0560769054703594
-0.0549172198062104
-0.0550392919813840
-0.0556191348134585
-0.0555275806820783
-0.0560769054703594
-0.0547646295872435
-0.0542763408865492
-0.0543373769741360
-0.0548256656748302
-0.0560463874265660
-0.0550087739375906
-0.0541847867551690
-0.0553444724193179
-0.0550087739375906
-0.0548867017624170
-0.0539711604486152
-0.0550392919813840
-0.0556191348134585
-0.0547341115434501
-0.0551918822003510
-0.0558022430762188
-0.0557717250324254
-0.0545204852368963
-0.0551308461127642
-0.0550392919813840
-0.0542458228427558
-0.0533913176165408
-0.0537270160982681
-0.0541542687113756
-0.0528725108720531
-0.0535133897917144
-0.0545815213244831
-0.0546120393682765
-0.0545510032806897
-0.0546120393682765
-0.0538185702296483
-0.0534218356603342
-0.0528114747844663
-0.0532997634851606
-0.0545815213244831
-0.0536049439230945
-0.0539101243610285
-0.0538185702296483
-0.0531471732661936
-0.0536354619668879
-0.0529335469596399
-0.0538185702296483
-0.0529030289158465
-0.0522621499961852
-0.0537575341420615
-0.0529945830472267
-0.0533607995727474
-0.0535744258793011
-0.0533913176165408
-0.0528419928282597
-0.0529640650034333
-0.0532692454413672
-0.0525062943465324
-0.0525978484779126
-0.0526283665217060
-0.0516823071641108
-0.0524147402151522
-0.0523231860837720
-0.0521705958648051
-0.0519264515144579
-0.0523537041275654
-0.0520180056458381
-0.0517738612954910
-0.0523842221713588
-0.0523537041275654
-0.0524452582589456
-0.0507972838941024
-0.0510414282444495
-0.0511635004196231
-0.0513466086823835
-0.0522011139085985
-0.0518348973830778
-0.0515297169451438
-0.0503700312809949
-0.0508583199816892
-0.0521400778210117
-0.0521400778210117
-0.0508583199816892
-0.0504921034561685
-0.0505836575875486
-0.0510414282444495
-0.0506752117189288
-0.0502784771496147
-0.0507362478065156
-0.0500343327992676
-0.0505531395437552
-0.0507057297627222
-0.0497291523613336
-0.0514686808575570
-0.0503395132372015
-0.0507362478065156
-0.0501869230182345
-0.0498512245365072
-0.0502479591058213
-0.0500038147554742
-0.0507362478065156
-0.0490577553978790
-0.0504310673685817
-0.0498817425803006
-0.0486915388723583
-0.0496986343175402
-0.0498207064927138
-0.0489662012664988
-0.0495460440985733
-0.0492408636606394
-0.0496986343175402
-0.0499732967116808
-0.0499732967116808
-0.0494239719233997
-0.0493018997482261
-0.0497596704051270
-0.0496375982299535
-0.0490882734416724
-0.0481727321278706
-0.0496681162737469
-0.0482948043030442
-0.0482337682154574
-0.0491187914854658
-0.0482337682154574
-0.0491798275730526
-0.0490882734416724
-0.0479896238651103
-0.0481727321278706
-0.0487830930037385
-0.0482642862592508
-0.0487220569161517
-0.0488136110475319
-0.0490577553978790
-0.0483558403906310
-0.0482948043030442
-0.0483558403906310
-0.0482032501716640
-0.0476234073395895
-0.0474402990768292
-0.0492408636606394
-0.0471961547264820
-0.0477149614709697
-0.0478675516899367
-0.0471046005951019
-0.0473792629892424
-0.0468909742885481
-0.0483253223468376
-0.0469825284199283
-0.0467383840695811
-0.0473182269016556
-0.0465552758068208
-0.0470435645075151
-0.0470740825513085
-0.0470130464637217
-0.0475928892957961
-0.0466773479819944
-0.0478065156023499
-0.0474708171206226
-0.0470740825513085
-0.0464332036316472
-0.0462195773250935
-0.0470435645075151
-0.0462195773250935
-0.0467689021133745
-0.0461585412375067
-0.0466773479819944
-0.0461585412375067
-0.0468299382009613
-0.0467383840695811
-0.0463721675440604
-0.0461890592813001
-0.0464942397192340
-0.0469520103761349
-0.0464026855878538
-0.0454566262302586
-0.0459754329747463
-0.0464026855878538
-0.0463721675440604
-0.0459449149309529
-0.0460975051499199
-0.0458838788433661
-0.0459143968871595
-0.0459449149309529
-0.0454261081864652
-0.0457312886243992
-0.0458228427557794
-0.0449073014419776
-0.0453955901426719
-0.0445410849164569
-0.0448157473105974
-0.0454261081864652
-0.0456092164492256
-0.0462500953688869
-0.0446631570916304
-0.0453955901426719
-0.0453040360112917
-0.0447852292668040
-0.0457618066681926
-0.0457312886243992
-0.0448462653543908
-0.0447852292668040
-0.0446631570916304
-0.0455176623178454
-0.0447547112230106
-0.0444800488288701
-0.0446936751354238
-0.0453040360112917
-0.0448767833981842
-0.0431067368581674
-0.0441748683909361
-0.0448157473105974
-0.0439307240405890
-0.0442053864347295
-0.0439917601281758
-0.0440222781719692
-0.0448462653543908
-0.0440222781719692
-0.0441443503471428
-0.0443274586099031
-0.0424963759822995
-0.0428931105516136
-0.0440833142595560
-0.0445410849164569
-0.0431982909895476
-0.0438391699092088
-0.0428931105516136
-0.0433508812085145
-0.0439917601281758
-0.0438391699092088
-0.0439002059967956
-0.0430457007705806
-0.0435645075150683
-0.0428320744640269
-0.0436255436026551
-0.0436560616464485
-0.0427405203326467
-0.0426489662012665
-0.0430457007705806
-0.0420080872816053
-0.0420691233691920
-0.0425879301136797
-0.0419470511940185
-0.0426184481574731
-0.0435339894712749
-0.0435034714274815
-0.0431677729457542
-0.0427100022888533
-0.0424048218509194
-0.0437170977340352
-0.0426489662012665
-0.0424353398947128
-0.0424658579385061
-0.0425879301136797
-0.0428320744640269
-0.0428015564202335
-0.0429236285954070
-0.0422217135881590
-0.0411535820553903
-0.0421606775005722
-0.0416113527122911
-0.0413061722743572
-0.0423437857633326
-0.0412756542305638
-0.0418249790188449
-0.0417639429312581
-0.0409399557488365
-0.0417334248874647
-0.0416723887998779
-0.0409704737926299
-0.0404211490043488
-0.0414892805371176
-0.0407873655298695
-0.0408789196612497
-0.0405432211795224
-0.0402075226977951
-0.0415808346684978
-0.0405432211795224
-0.0407263294422828
-0.0418554970626383
-0.0405127031357290
-0.0401770046540017
-0.0410315098802167
-0.0398718242160678
-0.0397802700846876
-0.0395666437781338
-0.0401464866102083
-0.0402075226977951
-0.0405737392233158
-0.0407873655298695
-0.0406347753109026
-0.0398718242160678
-0.0411535820553903
-0.0402380407415885
-0.0409399557488365
-0.0416113527122911
-0.0401159685664149
-0.0410315098802167
-0.0404821850919356
-0.0408178835736629
-0.0406958113984894
-0.0399023422598611
-0.0402075226977951
-0.0404516670481422
-0.0395666437781338
-0.0402075226977951
-0.0397497520408942
-0.0399328603036545
-0.0408178835736629
-0.0395361257343404
-0.0399023422598611
-0.0402685587853819
-0.0399023422598611
-0.0387121385519188
-0.0397497520408942
-0.0401770046540017
-0.0390173189898528
-0.0397192339971008
-0.0384374761577783
-0.0383764400701915
-0.0382238498512245
-0.0393224994277867
-0.0395361257343404
-0.0381017776760510
-0.0382238498512245
-0.0377660791943236
-0.0374608987563897
-0.0392004272526131
-0.0394445716029603
-0.0392919813839933
-0.0392614633401999
-0.0379797055008774
-0.0381322957198444
-0.0391393911650263
-0.0385900663767453
-0.0377050431067369
-0.0387426565957122
-0.0391088731212329
-0.0387121385519188
-0.0388342107270924
-0.0377050431067369
-0.0384985122453651
-0.0382848859388113
-0.0373693446250095
-0.0375829709315633
-0.0372777904936294
-0.0385290302891585
-0.0379491874570840
-0.0384985122453651
-0.0376134889753567
-0.0371557183184558
-0.0377355611505303
-0.0372472724498360
-0.0368505378805219
-0.0375219348439765
-0.0369115739681086
-0.0381933318074312
-0.0381017776760510
-0.0364843213550012
-0.0362401770046540
-0.0361486228732738
-0.0373388265812161
-0.0364232852674144
-0.0370336461432822
-0.0374303807125963
-0.0374303807125963
-0.0368810559243153
-0.0365148393987945
-0.0366369115739681
-0.0368200198367285
-0.0359960326543069
-0.0359044785229267
-0.0366979476615549
-0.0369420920119020
-0.0356603341725795
-0.0365148393987945
-0.0360265506981003
-0.0365758754863813
-0.0361181048294804
-0.0363012130922408
-0.0362706950484474
-0.0358434424353399
-0.0371557183184558
-0.0369726100556954
-0.0360875867856870
-0.0362096589608606
-0.0360570687418936
-0.0358434424353399
-0.0362401770046540
-0.0354772259098192
-0.0365453574425879
-0.0362096589608606
-0.0357213702601663
-0.0357213702601663
-0.0359044785229267
-0.0357518883039597
-0.0348363469901579
-0.0360570687418936
-0.0354772259098192
-0.0352025635156786
-0.0358434424353399
-0.0351415274280919
-0.0343175402456703
-0.0361791409170672
-0.0360875867856870
-0.0347753109025712
-0.0350194552529183
-0.0352025635156786
-0.0357518883039597
-0.0359960326543069
-0.0358129243915465
-0.0348668650339513
-0.0353551537346456
-0.0347447928587778
-0.0344090943770504
-0.0349889372091249
-0.0350194552529183
-0.0348668650339513
-0.0342259861142901
-0.0345922026398108
-0.0346532387273976
-0.0352330815594720
-0.0344396124208438
-0.0348973830777447
-0.0356603341725795
-0.0338597695887694
-0.0342259861142901
-0.0350804913405051
-0.0340123598077363
-0.0333714808880751
-0.0347753109025712
-0.0341039139391165
-0.0345616845960174
-0.0333104448004883
-0.0342259861142901
-0.0343175402456703
-0.0338597695887694
-0.0344396124208438
-0.0333104448004883
-0.0338292515449760
-0.0336766613260090
-0.0340428778515297
-0.0336156252384222
-0.0329747463187610
-0.0329747463187610
-0.0335545891508354
-0.0334630350194553
-0.0330968184939345
-0.0329137102311742
-0.0330663004501411
-0.0334630350194553
-0.0333104448004883
-0.0330968184939345
-0.0340733958953231
-0.0326085297932403
-0.0327000839246204
-0.0337071793698024
-0.0326085297932403
-0.0327000839246204
-0.0327306019684138
-0.0329442282749676
-0.0325474937056535
-0.0324559395742733
-0.0329442282749676
-0.0325780117494469
-0.0323949034866865
-0.0328221560997940
-0.0329747463187610
-0.0322117952239261
-0.0328526741435874
-0.0330663004501411
-0.0330357824063478
-0.0323949034866865
-0.0326695658808270
-0.0320286869611658
-0.0333104448004883
-0.0326390478370337
-0.0314183260852979
-0.0331273365377279
-0.0323033493553063
-0.0315709163042649
-0.0318150606546120
-0.0320592050049592
-0.0323033493553063
-0.0323338673990997
-0.0317540245670253
-0.0301060502021820
-0.0292515449759670
-0.0290989547570001
-0.0300450141145953
-0.0290379186694133
-0.0288548104066529
-0.0292820630197604
-0.0301365682459754
-0.0301365682459754
-0.0299229419394217
-0.0297703517204547
-0.0294956893263142
-0.0297093156328679
-0.0297703517204547
-0.0301365682459754
-0.0291905088883803
-0.0278477149614710
-0.0270237277790494
-0.0275425345235370
-0.0269321736476692
-0.0273899443045701
-0.0268711375600824
-0.0269626916914626
-0.0275730525673304
-0.0264133669031815
-0.0272068360418097
-0.0271457999542229
-0.0270542458228428
-0.0271152819104295
-0.0273899443045701
-0.0266575112535286
-0.0264133669031815
-0.0256504158083467
-0.0244907301441978
-0.0238803692683299
-0.0237888151369497
-0.0243381399252308
-0.0233920805676356
-0.0244296940566110
-0.0234836346990158
-0.0238498512245365
-0.0240939955748837
-0.0239719233997101
-0.0242465857938506
-0.0243991760128176
-0.0239719233997101
-0.0240329594872969
-0.0230869001297017
-0.0239108873121233
-0.0216220340276188
-0.0208285648889906
-0.0217746242465858
-0.0215304798962387
-0.0222018768596933
-0.0215304798962387
-0.0215609979400320
-0.0204928664072633
-0.0198519874876020
-0.0197604333562219
-0.0203707942320897
-0.0197604333562219
-0.0204318303196765
-0.0215915159838254
-0.0209811551079576
-0.0217746242465858
-0.0195162890058747
-0.0183871213855192
-0.0177157244220645
-0.0193026626993210
-0.0185397116044862
-0.0188448920424201
-0.0185091935606928
-0.0185091935606928
-0.0191195544365606
-0.0187228198672465
-0.0188448920424201
-0.0187533379110399
-0.0189364461738003
-0.0186923018234531
-0.0185397116044862
-0.0176241702906844
-0.0188143739986267
-0.0160982681010147
-0.0154879072251469
-0.0148470283054856
-0.0157015335317006
-0.0158541237506676
-0.0159761959258412
-0.0159456778820478
-0.0147859922178988
-0.0147554741741054
-0.0150606546120394
-0.0162813763637751
-0.0160677500572213
-0.0154573891813535
-0.0161593041886015
-0.0158846417944610
-0.0162203402761883
-0.0147554741741054
-0.0132295719844358
-0.0140535591668574
-0.0138399328603037
-0.0126192111085679
-0.0127107652399481
-0.0134126802471962
-0.0120698863202869
-0.0124971389333944
-0.0139314869916838
-0.0125886930647745
-0.0135042343785763
-0.0138704509040970
-0.0126192111085679
-0.0130464637216754
-0.0132600900282292
-0.0116426337071794
-0.00968947890440223
-0.0108796826123445
-0.0113984893568322
-0.0102998397802701
-0.0103913939116503
-0.0100556954299229
-0.0105439841306172
-0.0111848630502785
-0.0101472495613031
-0.0106355382619974
-0.0112458991378653
-0.0106660563057908
-0.00950637064164187
-0.0110627908751049
-0.0115205615320058
-0.0102998397802701
-0.00764476997024491
-0.00737010757610437
-0.00712596322575723
-0.00798046845197223
-0.00883497367818723
-0.00810254062714580
-0.00733958953231098
-0.00727855344472419
-0.00773632410162509
-0.00807202258335241
-0.00807202258335241
-0.00788891432059205
-0.00834668497749294
-0.00773632410162509
-0.00688181887541009
-0.00819409475852598
-0.00633249408712902
-0.00587472343022812
-0.00648508430609598
-0.00511177233539330
-0.00605783169298848
-0.00605783169298848
-0.00581368734264134
-0.00654612039368277
-0.00538643472953384
-0.00532539864194705
-0.00666819256885634
-0.00651560234988937
-0.00587472343022812
-0.00465400167849241
-0.00535591668574044
-0.00639353017471580
-0.00633249408712902
-0.00477607385366598
-0.00514229037918669
-0.00505073624780652
-0.00532539864194705
-0.00480659189745937
-0.00373846036469062
-0.00416571297779812
-0.00328068970778973
-0.00434882124055848
-0.00483710994125277
-0.00450141145952544
-0.00511177233539330
-0.00477607385366598
-0.00514229037918669
-0.00416571297779812
-0.00413519493400473
-0.00163271534294652
-0.00160219729915312
-0.00279240100709545
-0.00233463035019455
-0.00151064316777295
-0.00117494468604562
-0.00239566643778134
-0.00239566643778134
-0.00190737773708705
-0.00105287251087205
-0.00184634164950027
-0.00196841382467384
-0.00169375143053330
-0.00184634164950027
-0.00273136491950866
-0.00254825665674830
-0.000808728160524910
0.000137331197070268
-7.62951094834821e-05
0.000839246204318303
0.00138857099259937
0.00148012512397955
0.00117494468604562
0.000625619897764553
0.00141908903639277
0.00169375143053330
0.00135805294880598
0.000625619897764553
0.000747692072938125
0.000442511635004196
0.00129701686121920
0.00157167925535973
0.00102235446707866
0.00331120775158312
0.00364690623331045
0.00349431601434348
0.00410467689021134
0.00422674906538491
0.00279240100709545
0.00337224383916991
0.00318913557640955
0.00251773861295491
0.00343327992675670
0.00340276188296330
0.00263981078812848
0.00315861753261616
0.00398260471503777
0.00447089341573205
0.00416571297779812
0.00544747081712062
0.00685130083161669
0.00587472343022812
0.00535591668574044
0.00599679560540169
0.00611886778057527
0.00575265125505455
0.00611886778057527
0.00636301213092241
0.00602731364919509
0.00556954299229419
0.00636301213092241
0.00614938582436866
0.00584420538643473
0.00675974670023652
0.00605783169298848
0.00642404821850919
0.00758373388265812
0.00605783169298848
0.00648508430609598
0.00737010757610437
0.00675974670023652
0.00639353017471580
0.00663767452506294
0.00682078278782330
0.00666819256885634
0.00556954299229419
0.00639353017471580
0.00553902494850080
0.00672922865644312
0.00596627756160830
0.00617990386816205
0.00718699931334401
0.00749217975127794
0.00950637064164187
0.00907911802853437
0.00886549172198062
0.00959792477302205
0.00874341954680705
0.00843823910887312
0.00862134737163348
0.00865186541542687
0.00886549172198062
0.00865186541542687
0.00938429846646830
0.00938429846646830
0.00868238345922026
0.00999465934233616
0.00810254062714580
0.00883497367818723
0.0112153810940719
0.0106050202182040
0.0113374532692454
0.0106355382619974
0.0110627908751049
0.0102388036926833
0.0102693217364767
0.0103608758678569
0.0112153810940719
0.00984206912336919
0.0112153810940719
0.0116731517509728
0.0109102006561379
0.0112764171816587
0.0104219119554437
0.0108491645685512
0.0128633554589151
0.0135347524223697
0.0137483787289235
0.0135957885099565
0.0124971389333944
0.0121614404516670
0.0127107652399481
0.0133821622034028
0.0124666208896010
0.0131380178530556
0.0135652704661631
0.0117952239261463
0.0125581750209812
0.0129243915465019
0.0128938735027085
0.0129243915465019
0.0151522087434195
0.0183871213855192
0.0171969176775769
0.0168612191958495
0.0181734950789654
0.0171969176775769
0.0165560387579156
0.0184176394293126
0.0175326161593042
0.0172579537651637
0.0186617837796597
0.0179293507286183
0.0171358815899901
0.0167391470206760
0.0165865568017090
0.0175326161593042
0.0162813763637751
0.0192416266117342
0.0187228198672465
0.0189364461738003
0.0207064927138170
0.0189974822613870
0.0193026626993210
0.0195162890058747
0.0195773250934615
0.0189059281300069
0.0192721446555276
0.0193026626993210
0.0182345311665522
0.0196688792248417
0.0188754100862135
0.0181429770351720
0.0191195544365606
0.0208896009765774
0.0210421911955444
0.0218051422903792
0.0213473716334783
0.0212558175020981
0.0205539024948501
0.0205233844510567
0.0210421911955444
0.0211642633707179
0.0202182040131228
0.0200045777065690
0.0200350957503624
0.0213168535896849
0.0207370107576104
0.0208896009765774
0.0210727092393378
0.0204928664072633
0.0237277790493629
0.0225680933852140
0.0221408407721065
0.0222629129472801
0.0223849851224537
0.0220492866407263
0.0225680933852140
0.0226901655603876
0.0225986114290074
0.0220492866407263
0.0222323949034867
0.0227512016479744
0.0214694438086519
0.0221713588158999
0.0220492866407263
0.0223849851224537
0.0251621271076524
0.0252841992828260
0.0251926451514458
0.0250095368886854
0.0249790188448920
0.0249790188448920
0.0258640421149004
0.0245822842755779
0.0248264286259251
0.0245822842755779
0.0246128023193713
0.0258335240711070
0.0239414053559167
0.0241550316624704
0.0249179827573053
0.0236972610055695
0.0245517662317845
0.0269626916914626
0.0274204623483635
0.0261387045090410
0.0261387045090410
0.0258945601586938
0.0262607766842145
0.0269016556038758
0.0265659571221485
0.0260471503776608
0.0253757534142062
0.0263828488593881
0.0261387045090410
0.0265964751659419
0.0260776684214542
0.0254978255893797
0.0259250782024872
0.0286411841000992
0.0278782330052644
0.0284275577935454
0.0280613412680247
0.0277256427862974
0.0291905088883803
0.0278782330052644
0.0283970397497520
0.0280003051804379
0.0279392690928512
0.0286411841000992
0.0279697871366445
0.0274814984359503
0.0282444495307851
0.0289463645380331
0.0279087510490578
0.0293125810635538
0.0305027847714961
0.0311741817349508
0.0308384832532235
0.0304722667277028
0.0299534599832151
0.0302281223773556
0.0308995193408103
0.0306553749904631
0.0308384832532235
0.0310521095597772
0.0308384832532235
0.0307774471656367
0.0291599908445869
0.0298619058518349
0.0296177615014878
0.0297398336766613
0.0327916380560006
0.0313572899977111
0.0321202410925460
0.0325780117494469
0.0318455786984054
0.0310521095597772
0.0310521095597772
0.0312046997787442
0.0316319523918517
0.0326085297932403
0.0315098802166781
0.0320286869611658
0.0318760967421988
0.0312657358663310
0.0320592050049592
0.0324864576180667
0.0332188906691081
0.0324254215304799
0.0320286869611658
0.0331883726253147
0.0320592050049592
0.0323643854428931
0.0322423132677195
0.0318150606546120
0.0320897230487526
0.0325169756618601
0.0330968184939345
0.0321202410925460
0.0318455786984054
0.0322728313115129
0.0319371328297856
0.0324864576180667
0.0333104448004883
0.0328221560997940
0.0330968184939345
0.0321812771801328
0.0332494087129015
0.0327916380560006
0.0319981689173724
0.0337682154573892
0.0327306019684138
0.0329442282749676
0.0322728313115129
0.0325780117494469
0.0332799267566949
0.0323338673990997
0.0332188906691081
0.0316624704356451
0.0319981689173724
0.0329442282749676
0.0341649500267033
0.0338597695887694
0.0331578545815213
0.0337376974135958
0.0338902876325628
0.0327916380560006
0.0319371328297856
0.0337987335011826
0.0333714808880751
0.0323338673990997
0.0333104448004883
0.0330663004501411
0.0322728313115129
0.0327000839246204
0.0335240711070420
0.0332188906691081
0.0331883726253147
0.0333409628442817
0.0321507591363394
0.0319371328297856
0.0320286869611658
0.0321507591363394
0.0327000839246204
0.0333714808880751
0.0332188906691081
0.0334630350194553
0.0335240711070420
0.0329442282749676
0.0327611200122072
0.0324559395742733
0.0320592050049592
0.0333714808880751
0.0339513237201495
0.0329747463187610
0.0337987335011826
0.0321202410925460
0.0326695658808270
0.0327000839246204
0.0319981689173724
0.0323949034866865
0.0323949034866865
0.0324864576180667
0.0317540245670253
0.0320286869611658
0.0320592050049592
0.0323033493553063
0.0318455786984054
0.0325169756618601
0.0321812771801328
0.0312046997787442
0.0314793621728847
0.0312352178225376
0.0314793621728847
0.0315403982604715
0.0315098802166781
0.0315403982604715
0.0308384832532235
0.0314488441290913
0.0314488441290913
0.0311741817349508
0.0311436636911574
0.0315098802166781
0.0304722667277028
0.0305027847714961
0.0310215915159838
0.0321812771801328
0.0330052643625544
0.0315403982604715
0.0324254215304799
0.0324254215304799
0.0335240711070420
0.0325169756618601
0.0319066147859922
0.0323949034866865
0.0315709163042649
0.0323949034866865
0.0330357824063478
0.0323949034866865
0.0322117952239261
0.0317540245670253
0.0313878080415045
0.0312657358663310
0.0322117952239261
0.0320592050049592
0.0306248569466697
0.0315098802166781
0.0317540245670253
0.0308079652094301
0.0315098802166781
0.0307469291218433
0.0316624704356451
0.0322117952239261
0.0305638208590829
0.0304112306401160
0.0306553749904631
0.0317235065232319
0.0300755321583886
0.0310521095597772
0.0318760967421988
0.0313572899977111
0.0327611200122072
0.0322423132677195
0.0315098802166781
0.0319066147859922
0.0321202410925460
0.0316929884794385
0.0306248569466697
0.0312352178225376
0.0312962539101244
0.0314488441290913
0.0324559395742733
0.0316929884794385
0.0318150606546120
0.0323033493553063
0.0320286869611658
0.0318760967421988
0.0310826276035706
0.0307164110780499
0.0308384832532235
0.0313267719539178
0.0311131456473640
0.0307164110780499
0.0312962539101244
0.0318150606546120
0.0319066147859922
0.0315709163042649
0.0303807125963226
0.0302891584649424
0.0307164110780499
0.0306858930342565
0.0318455786984054
0.0324254215304799
0.0328831921873808
0.0328221560997940
0.0328221560997940
0.0325780117494469
0.0322117952239261
0.0316929884794385
0.0320592050049592
0.0323033493553063
0.0305943389028763
0.0313267719539178
0.0313572899977111
0.0312352178225376
0.0312352178225376
0.0314488441290913
0.0308384832532235
0.0301365682459754
0.0309605554283970
0.0317845426108186
0.0312046997787442
0.0308384832532235
0.0309300373846036
0.0303501945525292
0.0298619058518349
0.0301365682459754
0.0307164110780499
0.0301976043335622
0.0304417486839094
0.0301365682459754
0.0300450141145953
0.0302281223773556
0.0299534599832151
0.0297398336766613
0.0308384832532235
0.0304417486839094
0.0308079652094301
0.0312046997787442
0.0300450141145953
0.0299229419394217
0.0306248569466697
0.0302891584649424
0.0311741817349508
0.0312046997787442
0.0300144960708019
0.0298924238956283
0.0296787975890745
0.0312046997787442
0.0297093156328679
0.0310215915159838
0.0312046997787442
0.0318150606546120
0.0313878080415045
0.0310826276035706
0.0309910734721904
0.0305027847714961
0.0307774471656367
0.0305943389028763
0.0311131456473640
0.0307164110780499
0.0320592050049592
0.0315098802166781
0.0311741817349508
0.0318150606546120
0.0308995193408103
0.0298924238956283
0.0309910734721904
0.0308995193408103
0.0311741817349508
0.0314793621728847
0.0305638208590829
0.0308690012970169
0.0307164110780499
0.0309605554283970
0.0307774471656367
0.0305027847714961
0.0301976043335622
0.0298313878080415
0.0295567254139010
0.0293125810635538
0.0298313878080415
0.0299534599832151
0.0305638208590829
0.0308384832532235
0.0306553749904631
0.0297703517204547
0.0294956893263142
0.0301976043335622
0.0301976043335622
0.0293125810635538
0.0294041351949340
0.0302586404211490
0.0297093156328679
0.0306553749904631
0.0299229419394217
0.0291294728007935
0.0300755321583886
0.0298313878080415
0.0305943389028763
0.0297398336766613
0.0297093156328679
0.0280003051804379
0.0290379186694133
0.0290074006256199
0.0289158464942397
0.0288548104066529
0.0274204623483635
0.0280613412680247
0.0283665217059586
0.0278171969176776
0.0280003051804379
0.0283054856183719
0.0276646066987106
0.0286411841000992
0.0283054856183719
0.0284275577935454
0.0287632562752728
0.0284275577935454
0.0280003051804379
0.0283360036621653
0.0287937743190661
0.0283970397497520
0.0285191119249256
0.0279697871366445
0.0280003051804379
0.0283360036621653
0.0272373540856031
0.0265354390783551
0.0261997405966278
0.0272678721293965
0.0275730525673304
0.0264744029907683
0.0267490653849088
0.0263218127718013
0.0250400549324788
0.0251926451514458
0.0251621271076524
0.0261692225528344
0.0261081864652476
0.0251926451514458
0.0248569466697185
0.0246128023193713
0.0255893797207599
0.0254062714579995
0.0257114518959335
0.0254978255893797
0.0260166323338674
0.0251621271076524
0.0266880292973220
0.0255283436331731
0.0245212481879912
0.0245822842755779
0.0250400549324788
0.0248874647135119
0.0244907301441978
0.0254978255893797
0.0262302586404212
0.0254062714579995
0.0243991760128176
0.0244907301441978
0.0245517662317845
0.0254062714579995
0.0237888151369497
0.0241550316624704
0.0241855497062638
0.0245517662317845
0.0245212481879912
0.0233005264362554
0.0238803692683299
0.0240329594872969
0.0244296940566110
0.0238193331807431
0.0233005264362554
0.0241550316624704
0.0253147173266194
0.0238498512245365
0.0237888151369497
0.0237277790493629
0.0235446707866026
0.0243381399252308
0.0228427557793545
0.0228732738231479
0.0228122377355612
0.0225986114290074
0.0222934309910735
0.0220492866407263
0.0231479362172885
0.0229648279545281
0.0215915159838254
0.0224155031662470
0.0222934309910735
0.0231479362172885
0.0233310444800488
0.0220187685969329
0.0220492866407263
0.0223239490348669
0.0223849851224537
0.0213168535896849
0.0218051422903792
0.0218051422903792
0.0212863355458915
0.0222323949034867
0.0217441062027924
0.0225375753414206
0.0219577325093462
0.0214389257648585
0.0215609979400320
0.0216220340276188
0.0215915159838254
0.0215609979400320
0.0224460212100404
0.0218661783779660
0.0214084077210651
0.0198825055313954
0.0192721446555276
0.0196383611810483
0.0204318303196765
0.0206149385824369
0.0205539024948501
0.0201876859693294
0.0206759746700237
0.0196078431372549
0.0191195544365606
0.0208590829327840
0.0192416266117342
0.0188143739986267
0.0186007476920729
0.0186617837796597
0.0196383611810483
0.0186923018234531
0.0192721446555276
0.0197604333562219
0.0187838559548333
0.0190280003051804
0.0191500724803540
0.0186312657358663
0.0195162890058747
0.0193942168307012
0.0192111085679408
0.0197299153124285
0.0194857709620813
0.0189974822613870
0.0188143739986267
0.0197604333562219
0.0192721446555276
0.0200350957503624
0.0178683146410315
0.0171053635461967
0.0168917372396429
0.0173800259403372
0.0180209048599985
0.0178072785534447
0.0186007476920729
0.0178072785534447
0.0181429770351720
0.0168001831082628
0.0171663996337835
0.0181124589913787
0.0176852063782712
0.0168307011520562
0.0171969176775769
0.0168307011520562
0.0169527733272297
0.0164950026703288
0.0162203402761883
0.0163729304951553
0.0166475928892958
0.0165865568017090
0.0168612191958495
0.0169527733272297
0.0173800259403372
0.0182955672541390
0.0171053635461967
0.0165865568017090
0.0172274357213703
0.0171969176775769
0.0161287861448081
0.0171053635461967
0.0168307011520562
0.0146028839551385
0.0153353170061799
0.0152742809185931
0.0160067139696345
0.0152437628747997
0.0143587396047913
0.0154879072251469
0.0163118944075685
0.0153963530937667
0.0155794613565270
0.0150911726558328
0.0150301365682460
0.0160067139696345
0.0149080643930724
0.0149385824368658
0.0147249561303120
0.0151216906996262
0.0158236057068742
0.0144197756923781
0.0148775463492790
0.0156710154879072
0.0149080643930724
0.0157320515754940
0.0139620050354772
0.0155489433127337
0.0152742809185931
0.0150911726558328
0.0159151598382544
0.0139009689478904
0.0146334019989319
0.0145418478675517
0.0139314869916838
0.0145418478675517
0.0141145952544442
0.0133211261158160
0.0133211261158160
0.0139314869916838
0.0133821622034028
0.0126192111085679
0.0128328374151217
0.0127718013275349
0.0129854276340887
0.0135042343785763
0.0133821622034028
0.0149691004806592
0.0146028839551385
0.0142977035172045
0.0149385824368658
0.0146334019989319
0.0135347524223697
0.0125581750209812
0.0128938735027085
0.0129854276340887
0.0129549095902953
0.0126192111085679
0.0127718013275349
0.0124666208896010
0.0125886930647745
0.0127412832837415
0.0125276569771878
0.0124361028458076
0.0121309224078737
0.0126192111085679
0.0123140306706340
0.0126497291523613
0.0114900434882124
0.0109712367437247
0.0109407186999313
0.0110933089188983
0.0109102006561379
0.0101777676050965
0.0117647058823529
0.0115815976195926
0.0102082856488899
0.0110017547875181
0.0106050202182040
0.0102082856488899
0.0105134660868238
0.0103608758678569
0.0109102006561379
0.0105134660868238
0.0100556954299229
0.00819409475852598
0.00764476997024491
0.00846875715266651
0.00798046845197223
0.00834668497749294
0.00804150453955901
0.00822461280231937
0.00782787823300526
0.00837720302128634
0.00816357671473259
0.00846875715266651
0.00810254062714580
0.00770580605783169
0.00856031128404669
0.00849927519645991
0.00856031128404669
0.00636301213092241
0.00556954299229419
0.00547798886091402
0.00596627756160830
0.00587472343022812
0.00547798886091402
0.00550850690470741
0.00560006103608759
0.00538643472953384
0.00538643472953384
0.00526436255436027
0.00523384451056687
0.00566109712367437
0.00517280842298009
0.00502021820401312
0.00514229037918669
0.00456244754711223
0.00312809948882277
0.00212100404364080
0.00303654535744259
0.00325017166399634
0.00224307621881437
0.00267032883192187
0.00187685969329366
0.00218204013122759
0.00242618448157473
0.00199893186846723
0.00254825665674830
0.00257877470054170
0.00276188296330205
0.00270084687571527
0.00202944991226062
0.00291447318226902
0.000930800335698482
0.000198367284657053
-1.52590218966964e-05
0.000106813153276875
0.000534065766384375
-0.000198367284657053
0.000503547722590982
0.000442511635004196
0.000289921416037232
0.000534065766384375
-0.000167849240863661
0.000228885328450446
0.000106813153276875
-0.000717174029144732
-7.62951094834821e-05
-0.000564583810177768
-0.00312809948882277
-0.00477607385366598
-0.00416571297779812
-0.00428778515297170
-0.00364690623331045
-0.00276188296330205
-0.00361638818951705
-0.00257877470054170
-0.00379949645227741
-0.00355535210193027
-0.00358587014572366
-0.00453192950331884
-0.00428778515297170
-0.00318913557640955
-0.00321965362020295
-0.00309758144502937
-0.00325017166399634
-0.00599679560540169
-0.00590524147402152
-0.00666819256885634
-0.00529488059815366
-0.00578316929884794
-0.00621042191195544
-0.00614938582436866
-0.00517280842298009
-0.00535591668574044
-0.00550850690470741
-0.00584420538643473
-0.00700389105058366
-0.00651560234988937
-0.00572213321126116
-0.00587472343022812
-0.00520332646677348
-0.00730907148851759
-0.00907911802853437
-0.00767528801403830
-0.00840772106507973
-0.00813305867093919
-0.00892652780956741
-0.00892652780956741
-0.00871290150301366
-0.00852979324025330
-0.00904859998474098
-0.00868238345922026
-0.00871290150301366
-0.00810254062714580
-0.00852979324025330
-0.00874341954680705
-0.00852979324025330
-0.00898756389715419
-0.0106050202182040
-0.0114595254444190
-0.0110627908751049
-0.0101777676050965
-0.0109712367437247
-0.0110322728313115
-0.0107270923933776
-0.0106965743495842
-0.0109102006561379
-0.0111543450064851
-0.00944533455405508
-0.0106355382619974
-0.0106965743495842
-0.0105745021744106
-0.0110933089188983
-0.0104829480430304
-0.0138704509040970
-0.0164950026703288
-0.0160677500572213
-0.0153353170061799
-0.0155489433127337
-0.0155184252689403
-0.0162508583199817
-0.0154268711375601
-0.0148470283054856
-0.0152742809185931
-0.0160677500572213
-0.0161593041886015
-0.0154268711375601
-0.0157320515754940
-0.0157930876630808
-0.0155794613565270
-0.0161593041886015
-0.0181124589913787
-0.0177157244220645
-0.0185397116044862
-0.0175020981155108
-0.0173189898527504
-0.0186923018234531
-0.0172274357213703
-0.0180819409475853
-0.0185702296482795
-0.0177157244220645
-0.0186923018234531
-0.0188448920424201
-0.0179598687724117
-0.0176546883344778
-0.0189059281300069
-0.0182955672541390
-0.0193331807431144
-0.0207675288014038
-0.0205539024948501
-0.0192721446555276
-0.0193636987869078
-0.0200961318379492
-0.0194552529182879
-0.0199435416189822
-0.0192416266117342
-0.0196078431372549
-0.0196993972686351
-0.0203402761882963
-0.0207675288014038
-0.0206759746700237
-0.0207064927138170
-0.0200045777065690
-0.0205539024948501
-0.0214389257648585
-0.0220492866407263
-0.0213778896772717
-0.0220798046845197
-0.0220492866407263
-0.0230869001297017
-0.0224155031662470
-0.0216525520714122
-0.0219882505531395
-0.0222323949034867
-0.0222323949034867
-0.0216220340276188
-0.0218966964217594
-0.0214389257648585
-0.0223849851224537
-0.0225680933852140
-0.0239414053559167
-0.0228427557793545
-0.0233310444800488
-0.0232089723048753
-0.0229648279545281
-0.0234836346990158
-0.0226901655603876
-0.0233615625238422
-0.0222629129472801
-0.0227817196917678
-0.0234531166552224
-0.0230869001297017
-0.0229037918669413
-0.0227512016479744
-0.0229343099107347
-0.0225070572976272
-0.0246128023193713
-0.0254978255893797
-0.0249790188448920
-0.0246738384069581
-0.0256198977645533
-0.0257419699397269
-0.0252841992828260
-0.0251621271076524
-0.0259861142900740
-0.0260471503776608
-0.0248264286259251
-0.0246738384069581
-0.0246433203631647
-0.0243381399252308
-0.0249790188448920
-0.0242160677500572
-0.0249485008010987
-0.0265354390783551
-0.0264744029907683
-0.0270237277790494
-0.0267185473411154
-0.0260166323338674
-0.0263828488593881
-0.0267795834287022
-0.0264744029907683
-0.0269626916914626
-0.0265354390783551
-0.0272678721293965
-0.0265354390783551
-0.0274509803921569
-0.0275120164797436
-0.0276951247425040
-0.0273594262607767
-0.0287327382314794
-0.0305333028152895
-0.0290074006256199
-0.0284580758373388
-0.0298924238956283
-0.0290989547570001
-0.0294346532387274
-0.0293430991073472
-0.0297703517204547
-0.0295262073701076
-0.0285496299687190
-0.0287022201876860
-0.0293736171511406
-0.0286411841000992
-0.0288853284504463
-0.0292820630197604
-0.0300144960708019
-0.0312046997787442
-0.0308995193408103
-0.0314488441290913
-0.0308690012970169
-0.0308079652094301
-0.0309910734721904
-0.0307164110780499
-0.0315098802166781
-0.0311436636911574
-0.0314488441290913
-0.0314488441290913
-0.0304417486839094
-0.0300450141145953
-0.0310521095597772
-0.0310826276035706
-0.0305027847714961
-0.0325169756618601
-0.0317235065232319
-0.0321812771801328
-0.0326085297932403
-0.0319371328297856
-0.0319371328297856
-0.0322117952239261
-0.0328221560997940
-0.0308384832532235
-0.0328221560997940
-0.0326085297932403
-0.0312962539101244
-0.0330663004501411
-0.0315098802166781
-0.0318150606546120
-0.0307774471656367
-0.0333104448004883
-0.0339513237201495
-0.0329747463187610
-0.0332799267566949
-0.0331273365377279
-0.0338597695887694
-0.0329442282749676
-0.0334630350194553
-0.0331578545815213
-0.0328526741435874
-0.0339818417639429
-0.0330357824063478
-0.0331883726253147
-0.0326085297932403
-0.0332799267566949
-0.0334325169756619
-0.0341039139391165
-0.0364232852674144
-0.0351720454718853
-0.0363927672236210
-0.0361181048294804
-0.0347753109025712
-0.0354467078660258
-0.0348058289463645
-0.0356603341725795
-0.0357213702601663
-0.0351720454718853
-0.0352941176470588
-0.0350499732967117
-0.0353551537346456
-0.0349889372091249
-0.0352941176470588
-0.0348668650339513
-0.0367284657053483
-0.0376440070191501
-0.0368505378805219
-0.0376134889753567
-0.0363317311360342
-0.0363012130922408
-0.0377355611505303
-0.0370031280994888
-0.0367895017929351
-0.0356298161287861
-0.0361791409170672
-0.0366674296177615
-0.0363927672236210
-0.0363927672236210
-0.0362706950484474
-0.0364232852674144
-0.0374914168001831
-0.0388952468146792
-0.0382543678950179
-0.0391393911650263
-0.0387426565957122
-0.0385900663767453
-0.0378881513694972
-0.0392004272526131
-0.0382848859388113
-0.0380407415884642
-0.0384985122453651
-0.0384985122453651
-0.0384985122453651
-0.0383764400701915
-0.0381322957198444
-0.0379491874570840
-0.0384069581139849
-0.0406958113984894
-0.0410925459678035
-0.0408484016174563
-0.0405127031357290
-0.0408484016174563
-0.0403906309605554
-0.0408789196612497
-0.0402075226977951
-0.0403906309605554
-0.0408178835736629
-0.0402685587853819
-0.0401464866102083
-0.0395361257343404
-0.0411230640115969
-0.0406347753109026
-0.0399023422598611
-0.0422827496757458
-0.0431677729457542
-0.0422217135881590
-0.0420996414129854
-0.0425268940260929
-0.0422217135881590
-0.0422827496757458
-0.0425879301136797
-0.0417334248874647
-0.0431372549019608
-0.0422217135881590
-0.0421911955443656
-0.0429846646829938
-0.0416418707560845
-0.0417944609750515
-0.0419775692378119
-0.0428320744640269
-0.0442969405661097
-0.0449988555733578
-0.0430762188143740
-0.0439002059967956
-0.0449988555733578
-0.0434729533836881
-0.0440527962157626
-0.0449073014419776
-0.0442359044785229
-0.0441748683909361
-0.0442053864347295
-0.0438086518654154
-0.0436865796902419
-0.0443579766536965
-0.0442053864347295
-0.0427405203326467
-0.0456397344930190
-0.0456397344930190
-0.0458838788433661
-0.0463721675440604
-0.0460975051499199
-0.0458533607995727
-0.0453040360112917
-0.0462806134126803
-0.0448462653543908
-0.0451819638361181
-0.0455481803616388
-0.0449683375295644
-0.0462806134126803
-0.0454261081864652
-0.0452429999237049
-0.0455176623178454
-0.0457923247119860
-0.0472266727702754
-0.0475013351644160
-0.0464637216754406
-0.0458838788433661
-0.0465857938506142
-0.0473182269016556
-0.0465552758068208
-0.0460059510185397
-0.0468909742885481
-0.0474097810330358
-0.0474097810330358
-0.0471656366826886
-0.0465552758068208
-0.0457007705806058
-0.0456702525368124
-0.0459449149309529
-0.0485999847409781
-0.0492713817044327
-0.0488746471351186
-0.0495155260547799
-0.0486915388723583
-0.0474708171206226
-0.0483253223468376
-0.0480811779964904
-0.0487830930037385
-0.0485084306095979
-0.0482642862592508
-0.0482337682154574
-0.0481116960402838
-0.0490882734416724
-0.0480506599526970
-0.0477759975585565
-0.0476844434271763
-0.0480811779964904
-0.0475928892957961
-0.0474708171206226
-0.0476539253833829
-0.0475928892957961
-0.0482032501716640
-0.0474402990768292
-0.0481116960402838
-0.0477454795147631
-0.0468604562447547
-0.0473792629892424
-0.0473182269016556
-0.0470130464637217
-0.0469825284199283
-0.0474402990768292
-0.0475013351644160
-0.0470435645075151
-0.0471046005951019
-0.0466773479819944
-0.0471961547264820
-0.0462500953688869
-0.0473792629892424
-0.0471961547264820
-0.0470435645075151
-0.0476539253833829
-0.0458533607995727
-0.0459449149309529
-0.0471046005951019
-0.0475928892957961
-0.0463111314564736
-0.0472266727702754
-0.0459449149309529
-0.0457618066681926
-0.0464332036316472
-0.0451819638361181
-0.0456092164492256
-0.0462500953688869
-0.0455481803616388
-0.0454566262302586
-0.0451819638361181
-0.0450598916609445
-0.0454566262302586
-0.0455481803616388
-0.0459143968871595
-0.0450598916609445
-0.0460364690623331
-0.0467689021133745
-0.0451819638361181
-0.0445410849164569
-0.0453650720988785
-0.0453650720988785
-0.0452735179674983
-0.0449683375295644
-0.0444495307850767
-0.0446021210040436
-0.0445105668726635
-0.0441748683909361
-0.0447547112230106
-0.0446631570916304
-0.0443579766536965
-0.0443274586099031
-0.0442053864347295
-0.0448157473105974
-0.0441138323033494
-0.0439612420843824
-0.0442664225223163
-0.0438696879530022
-0.0442359044785229
-0.0441138323033494
-0.0431982909895476
-0.0446936751354238
-0.0449378194857710
-0.0444190127412833
-0.0445105668726635
-0.0437476157778286
-0.0438086518654154
-0.0437476157778286
-0.0440833142595560
-0.0439002059967956
-0.0438391699092088
-0.0433203631647211
-0.0444190127412833
-0.0433813992523079
-0.0441443503471428
-0.0437476157778286
-0.0433813992523079
-0.0427710383764401
-0.0431677729457542
-0.0437170977340352
-0.0426489662012665
-0.0432593270771344
-0.0427405203326467
-0.0434729533836881
-0.0429541466392004
-0.0423437857633326
-0.0433813992523079
-0.0425268940260929
-0.0429846646829938
-0.0426794842450599
-0.0421911955443656
-0.0420996414129854
-0.0417639429312581
-0.0420996414129854
-0.0418554970626383
-0.0419775692378119
-0.0421301594567788
-0.0417029068436713
-0.0415808346684978
-0.0418249790188449
-0.0416418707560845
-0.0420996414129854
-0.0417639429312581
-0.0419470511940185
-0.0419470511940185
-0.0411841000991836
-0.0416723887998779
-0.0413672083619440
-0.0412451361867704
-0.0413366903181506
-0.0413061722743572
-0.0423132677195392
-0.0408178835736629
-0.0410925459678035
-0.0405737392233158
-0.0404516670481422
-0.0399633783474479
-0.0403906309605554
-0.0411535820553903
-0.0407568474860761
-0.0410925459678035
-0.0411535820553903
-0.0407568474860761
-0.0414587624933242
-0.0406652933546960
-0.0409704737926299
-0.0404516670481422
-0.0401464866102083
-0.0414282444495308
-0.0408789196612497
-0.0404211490043488
-0.0397802700846876
-0.0402990768291753
-0.0399328603036545
-0.0401770046540017
-0.0404516670481422
-0.0399023422598611
-0.0403601129167620
-0.0403906309605554
-0.0398718242160678
-0.0403906309605554
-0.0394140535591669
-0.0401159685664149
-0.0391699092088197
-0.0399633783474479
-0.0400244144350347
-0.0393224994277867
-0.0392919813839933
-0.0397192339971008
-0.0393530174715801
-0.0387731746395056
-0.0393224994277867
-0.0394140535591669
-0.0394750896467536
-0.0398107881284810
-0.0395361257343404
-0.0389562829022660
-0.0394750896467536
-0.0388036926832990
-0.0392309452964065
-0.0384985122453651
-0.0391088731212329
-0.0385595483329519
-0.0394750896467536
-0.0388647287708858
-0.0384985122453651
-0.0389257648584726
-0.0381017776760510
-0.0391393911650263
-0.0388036926832990
-0.0392614633401999
-0.0381933318074312
-0.0388036926832990
-0.0383154039826047
-0.0379491874570840
-0.0385290302891585
-0.0379491874570840
-0.0383459220263981
-0.0379186694132906
-0.0381322957198444
-0.0380407415884642
-0.0382543678950179
-0.0380712596322576
-0.0377050431067369
-0.0376745250629435
-0.0377050431067369
-0.0371252002746624
-0.0383154039826047
-0.0378271152819104
-0.0372167544060426
-0.0369115739681086
-0.0377355611505303
-0.0369115739681086
-0.0370641641870756
-0.0379491874570840
-0.0369726100556954
-0.0370641641870756
-0.0369420920119020
-0.0384679942015717
-0.0380712596322576
-0.0369726100556954
-0.0370946822308690
-0.0374608987563897
-0.0379797055008774
-0.0373083085374228
-0.0367284657053483
-0.0369115739681086
-0.0369726100556954
-0.0367895017929351
-0.0367589837491417
-0.0364538033112078
-0.0358739604791333
-0.0362706950484474
-0.0360570687418936
-0.0368810559243153
-0.0359960326543069
-0.0353551537346456
-0.0357824063477531
-0.0355077439536126
-0.0360570687418936
-0.0360570687418936
-0.0355382619974060
-0.0357518883039597
-0.0358129243915465
-0.0345006485084306
-0.0354467078660258
-0.0359044785229267
-0.0350804913405051
-0.0357213702601663
-0.0360570687418936
-0.0366979476615549
-0.0355077439536126
-0.0350194552529183
-0.0358129243915465
-0.0350804913405051
-0.0350194552529183
-0.0348058289463645
-0.0351415274280919
-0.0350194552529183
-0.0355992980849928
-0.0352941176470588
-0.0349584191653315
-0.0353551537346456
-0.0349889372091249
-0.0347447928587778
-0.0346837567711910
-0.0338597695887694
-0.0334935530632486
-0.0349889372091249
-0.0337987335011826
-0.0342870222018769
-0.0355992980849928
-0.0345922026398108
-0.0349584191653315
-0.0341344319829099
-0.0345616845960174
-0.0341649500267033
-0.0335545891508354
-0.0333104448004883
-0.0333714808880751
-0.0345006485084306
-0.0336461432822156
-0.0334630350194553
-0.0335240711070420
-0.0349889372091249
-0.0345922026398108
-0.0333409628442817
-0.0343785763332570
-0.0355992980849928
-0.0350499732967117
-0.0339818417639429
-0.0344396124208438
-0.0347142748149844
-0.0339818417639429
-0.0347447928587778
-0.0342870222018769
-0.0340428778515297
-0.0349279011215381
-0.0341039139391165
-0.0333409628442817
-0.0335851071946288
-0.0331883726253147
-0.0329442282749676
-0.0340428778515297
-0.0327916380560006
-0.0340428778515297
-0.0345922026398108
-0.0340123598077363
-0.0338597695887694
-0.0336156252384222
-0.0342259861142901
-0.0334019989318685
-0.0321202410925460
-0.0335545891508354
-0.0339818417639429
-0.0335851071946288
-0.0334630350194553
-0.0323033493553063
-0.0332188906691081
-0.0335545891508354
-0.0334019989318685
-0.0336156252384222
-0.0325169756618601
-0.0322728313115129
-0.0337682154573892
-0.0321812771801328
-0.0316014343480583
-0.0320286869611658
-0.0327916380560006
-0.0327611200122072
-0.0319371328297856
-0.0311436636911574
-0.0324559395742733
-0.0321812771801328
-0.0325169756618601
-0.0328526741435874
-0.0321812771801328
-0.0325780117494469
-0.0319676508735790
-0.0323033493553063
-0.0327611200122072
-0.0335851071946288
-0.0330357824063478
-0.0322728313115129
-0.0313572899977111
-0.0318760967421988
-0.0320286869611658
-0.0308995193408103
-0.0322117952239261
-0.0324864576180667
-0.0311741817349508
-0.0321507591363394
-0.0321812771801328
-0.0320286869611658
-0.0318760967421988
-0.0324559395742733
-0.0325780117494469
-0.0308995193408103
-0.0308995193408103
-0.0322117952239261
-0.0317235065232319
-0.0315098802166781
-0.0319981689173724
-0.0310215915159838
-0.0310215915159838
-0.0321202410925460
-0.0319676508735790
-0.0308995193408103
-0.0307469291218433
-0.0313878080415045
-0.0319676508735790
-0.0310826276035706
-0.0304112306401160
-0.0306858930342565
-0.0314793621728847
-0.0317235065232319
-0.0304722667277028
-0.0309910734721904
-0.0313878080415045
-0.0312962539101244
-0.0316319523918517
-0.0307469291218433
-0.0305333028152895
-0.0310826276035706
-0.0303501945525292
-0.0303196765087358
-0.0310215915159838
-0.0306858930342565
-0.0294956893263142
-0.0291294728007935
-0.0296482795452811
-0.0298619058518349
-0.0292210269321736
-0.0293430991073472
-0.0290379186694133
-0.0288853284504463
-0.0292210269321736
-0.0291599908445869
-0.0293430991073472
-0.0291905088883803
-0.0297093156328679
-0.0305333028152895
-0.0300450141145953
-0.0287327382314794
-0.0298008697642481
-0.0303807125963226
-0.0287937743190662
-0.0301976043335622
-0.0304722667277028
-0.0297093156328679
-0.0299839780270085
-0.0299534599832151
-0.0305027847714961
-0.0301976043335622
-0.0297398336766613
-0.0305333028152895
-0.0295262073701076
-0.0281834134431983
-0.0297398336766613
-0.0289463645380331
-0.0290074006256199
-0.0288242923628595
-0.0289768825818265
-0.0301670862897688
-0.0295872434576944
-0.0299534599832151
-0.0294041351949340
-0.0297703517204547
-0.0290379186694133
-0.0283054856183719
-0.0289463645380331
-0.0294651712825208
-0.0286411841000992
-0.0280308232242313
-0.0277561608300908
-0.0282749675745785
-0.0288548104066529
-0.0292820630197604
-0.0290379186694133
-0.0275425345235370
-0.0294651712825208
-0.0285801480125124
-0.0286411841000992
-0.0291294728007935
-0.0283360036621653
-0.0277866788738842
-0.0276035706111238
-0.0284580758373388
-0.0285801480125124
-0.0289158464942397
-0.0275425345235370
-0.0280918593118181
-0.0289768825818265
-0.0292515449759670
-0.0289463645380331
-0.0285496299687190
-0.0283665217059586
-0.0274509803921569
-0.0278782330052644
-0.0283970397497520
-0.0284885938811322
-0.0286717021438926
-0.0286717021438926
-0.0286411841000992
-0.0285801480125124
-0.0276646066987106
-0.0267490653849088
-0.0267490653849088
-0.0268711375600824
-0.0273594262607767
-0.0267795834287022
-0.0265964751659419
-0.0276340886549172
-0.0266880292973220
-0.0265354390783551
-0.0274814984359503
-0.0271457999542229
-0.0257724879835203
-0.0261692225528344
-0.0273899443045701
-0.0271763179980163
-0.0259250782024872
-0.0267490653849088
-0.0272068360418097
-0.0264133669031815
-0.0260166323338674
-0.0261997405966278
-0.0267795834287022
-0.0265964751659419
-0.0253757534142062
-0.0261387045090410
-0.0256504158083467
-0.0269016556038758
-0.0269321736476692
-0.0269016556038758
-0.0263828488593881
-0.0257419699397269
-0.0259861142900740
-0.0251926451514458
-0.0263828488593881
-0.0265659571221485
-0.0268406195162890
-0.0255893797207599
-0.0254673075455863
-0.0266575112535286
-0.0271457999542229
-0.0257724879835203
-0.0263218127718013
-0.0265354390783551
-0.0256198977645533
-0.0262607766842145
-0.0262302586404212
-0.0255893797207599
-0.0255588616769665
-0.0251926451514458
